Shimmer_B640_Timestamp_FormattedUnix_CAL,Shimmer_B640_PPG_A13_CAL
yyyy/mm/dd hh:mm:ss.000,mV
51:15.3,1180.952381
51:15.3,1175.824176
51:15.3,1171.428571
51:15.3,1168.498168
51:15.3,1169.230769
51:15.3,1171.428571
51:15.3,1172.161172
51:15.3,1172.161172
51:15.3,1170.695971
51:15.4,1167.032967
51:15.4,1167.032967
51:15.4,1164.835165
51:15.4,1162.637363
51:15.4,1159.70696
51:15.4,1156.776557
51:15.4,1155.311355
51:15.4,1153.846154
51:15.4,1153.846154
51:15.4,1153.846154
51:15.4,1154.578755
51:15.4,1155.311355
51:15.4,1156.043956
51:15.5,1158.241758
51:15.5,1158.974359
51:15.5,1158.974359
51:15.5,1159.70696
51:15.5,1158.974359
51:15.5,1159.70696
51:15.5,1159.70696
51:15.5,1158.241758
51:15.5,1156.776557
51:15.5,1153.113553
51:15.5,1150.915751
51:15.5,1151.648352
51:15.5,1153.113553
51:15.6,1158.241758
51:15.6,1168.498168
51:15.6,1181.684982
51:15.6,1198.534799
51:15.6,1221.245421
51:15.6,1250.549451
51:15.6,1287.912088
51:15.6,1334.065934
51:15.6,1389.74359
51:15.6,1451.282051
51:15.6,1517.216117
51:15.6,1583.882784
51:15.6,1652.014652
51:15.7,1718.681319
51:15.7,1781.684982
51:15.7,1834.432234
51:15.7,1879.85348
51:15.7,1910.622711
51:15.7,1933.333333
51:15.7,1945.054945
51:15.7,1950.18315
51:15.7,1949.450549
51:15.7,1941.391941
51:15.7,1931.135531
51:15.7,1917.216117
51:15.8,1898.901099
51:15.8,1878.388278
51:15.8,1856.410256
51:15.8,1830.769231
51:15.8,1801.465201
51:15.8,1771.428571
51:15.8,1742.124542
51:15.8,1714.285714
51:15.8,1687.912088
51:15.8,1665.934066
51:15.8,1649.084249
51:15.8,1632.967033
51:15.8,1620.512821
51:15.9,1611.721612
51:15.9,1606.593407
51:15.9,1602.930403
51:15.9,1599.267399
51:15.9,1594.139194
51:15.9,1591.941392
51:15.9,1587.545788
51:15.9,1583.882784
51:15.9,1575.824176
51:15.9,1563.369963
51:15.9,1550.18315
51:15.9,1535.531136
51:15.9,1520.14652
51:16.0,1503.296703
51:16.0,1484.981685
51:16.0,1464.468864
51:16.0,1444.688645
51:16.0,1421.978022
51:16.0,1400
51:16.0,1381.684982
51:16.0,1364.102564
51:16.0,1345.787546
51:16.0,1327.472527
51:16.0,1310.622711
51:16.0,1295.238095
51:16.0,1283.516484
51:16.1,1274.725275
51:16.1,1267.399267
51:16.1,1261.538462
51:16.1,1256.410256
51:16.1,1251.282051
51:16.1,1246.153846
51:16.1,1241.758242
51:16.1,1238.827839
51:16.1,1235.897436
51:16.1,1235.164835
51:16.1,1238.095238
51:16.1,1241.758242
51:16.1,1245.421245
51:16.2,1250.549451
51:16.2,1253.479853
51:16.2,1252.747253
51:16.2,1250.549451
51:16.2,1246.153846
51:16.2,1241.758242
51:16.2,1238.095238
51:16.2,1233.699634
51:16.2,1232.234432
51:16.2,1227.838828
51:16.2,1225.641026
51:16.2,1224.175824
51:16.3,1221.245421
51:16.3,1216.117216
51:16.3,1210.989011
51:16.3,1204.395604
51:16.3,1194.871795
51:16.3,1186.813187
51:16.3,1178.021978
51:16.3,1172.161172
51:16.3,1164.102564
51:16.3,1156.776557
51:16.3,1150.915751
51:16.3,1144.322344
51:16.3,1141.391941
51:16.4,1142.124542
51:16.4,1145.054945
51:16.4,1147.252747
51:16.4,1149.450549
51:16.4,1150.915751
51:16.4,1150.915751
51:16.4,1153.846154
51:16.4,1154.578755
51:16.4,1157.509158
51:16.4,1163.369963
51:16.4,1172.161172
51:16.4,1180.952381
51:16.4,1189.74359
51:16.5,1194.871795
51:16.5,1197.069597
51:16.5,1197.802198
51:16.5,1197.802198
51:16.5,1196.336996
51:16.5,1190.47619
51:16.5,1184.615385
51:16.5,1180.21978
51:16.5,1175.091575
51:16.5,1169.230769
51:16.5,1164.102564
51:16.5,1158.241758
51:16.5,1152.380952
51:16.6,1146.520147
51:16.6,1142.124542
51:16.6,1141.391941
51:16.6,1141.391941
51:16.6,1142.124542
51:16.6,1143.589744
51:16.6,1146.520147
51:16.6,1150.915751
51:16.6,1158.974359
51:16.6,1169.230769
51:16.6,1185.347985
51:16.6,1209.52381
51:16.6,1241.025641
51:16.7,1280.586081
51:16.7,1326.739927
51:16.7,1378.754579
51:16.7,1435.897436
51:16.7,1493.772894
51:16.7,1549.450549
51:16.7,1603.663004
51:16.7,1651.282051
51:16.7,1692.307692
51:16.7,1726.739927
51:16.7,1751.648352
51:16.7,1767.032967
51:16.8,1775.091575
51:16.8,1775.091575
51:16.8,1771.428571
51:16.8,1764.835165
51:16.8,1759.70696
51:16.8,1752.380952
51:16.8,1741.391941
51:16.8,1726.007326
51:16.8,1705.494505
51:16.8,1680.586081
51:16.8,1651.282051
51:16.8,1622.710623
51:16.8,1593.406593
51:16.9,1564.835165
51:16.9,1542.857143
51:16.9,1522.344322
51:16.9,1505.494505
51:16.9,1499.6337
51:16.9,1498.901099
51:16.9,1503.296703
51:16.9,1510.622711
51:16.9,1517.948718
51:16.9,1522.344322
51:16.9,1526.007326
51:16.9,1528.937729
51:16.9,1531.135531
51:17.0,1529.67033
51:17.0,1522.344322
51:17.0,1509.89011
51:17.0,1495.970696
51:17.0,1480.586081
51:17.0,1466.666667
51:17.0,1454.945055
51:17.0,1442.490842
51:17.0,1427.106227
51:17.0,1410.989011
51:17.0,1389.74359
51:17.0,1369.230769
51:17.0,1349.450549
51:17.1,1329.67033
51:17.1,1310.622711
51:17.1,1295.970696
51:17.1,1280.586081
51:17.1,1268.131868
51:17.1,1258.608059
51:17.1,1248.351648
51:17.1,1240.29304
51:17.1,1235.164835
51:17.1,1230.769231
51:17.1,1224.908425
51:17.1,1219.78022
51:17.1,1213.186813
51:17.2,1207.326007
51:17.2,1204.395604
51:17.2,1201.465201
51:17.2,1199.267399
51:17.2,1198.534799
51:17.2,1197.069597
51:17.2,1195.604396
51:17.2,1194.139194
51:17.2,1193.406593
51:17.2,1196.336996
51:17.2,1197.069597
51:17.2,1199.267399
51:17.3,1201.465201
51:17.3,1202.197802
51:17.3,1201.465201
51:17.3,1200.732601
51:17.3,1200
51:17.3,1195.604396
51:17.3,1194.139194
51:17.3,1191.941392
51:17.3,1189.74359
51:17.3,1188.278388
51:17.3,1186.080586
51:17.3,1183.882784
51:17.3,1181.684982
51:17.4,1179.487179
51:17.4,1178.021978
51:17.4,1178.754579
51:17.4,1179.487179
51:17.4,1180.952381
51:17.4,1181.684982
51:17.4,1183.150183
51:17.4,1188.278388
51:17.4,1192.673993
51:17.4,1195.604396
51:17.4,1200
51:17.4,1202.197802
51:17.4,1203.663004
51:17.5,1205.860806
51:17.5,1205.860806
51:17.5,1204.395604
51:17.5,1201.465201
51:17.5,1197.802198
51:17.5,1194.139194
51:17.5,1191.208791
51:17.5,1187.545788
51:17.5,1184.615385
51:17.5,1180.21978
51:17.5,1178.754579
51:17.5,1179.487179
51:17.5,1179.487179
51:17.6,1178.021978
51:17.6,1180.21978
51:17.6,1180.21978
51:17.6,1181.684982
51:17.6,1183.150183
51:17.6,1184.615385
51:17.6,1185.347985
51:17.6,1187.545788
51:17.6,1189.010989
51:17.6,1191.941392
51:17.6,1200
51:17.6,1211.721612
51:17.6,1229.304029
51:17.7,1256.410256
51:17.7,1288.644689
51:17.7,1324.542125
51:17.7,1363.369963
51:17.7,1405.128205
51:17.7,1446.886447
51:17.7,1487.912088
51:17.7,1523.809524
51:17.7,1557.509158
51:17.7,1585.347985
51:17.7,1608.791209
51:17.7,1629.304029
51:17.8,1646.153846
51:17.8,1659.340659
51:17.8,1668.864469
51:17.8,1672.527473
51:17.8,1668.864469
51:17.8,1659.340659
51:17.8,1643.956044
51:17.8,1624.175824
51:17.8,1604.395604
51:17.8,1581.684982
51:17.8,1559.70696
51:17.8,1534.065934
51:17.8,1510.622711
51:17.9,1490.10989
51:17.9,1471.062271
51:17.9,1456.410256
51:17.9,1447.619048
51:17.9,1444.688645
51:17.9,1446.153846
51:17.9,1451.282051
51:17.9,1456.410256
51:17.9,1462.271062
51:17.9,1469.59707
51:17.9,1474.725275
51:17.9,1479.120879
51:17.9,1479.85348
51:18.0,1479.120879
51:18.0,1474.725275
51:18.0,1467.399267
51:18.0,1456.410256
51:18.0,1446.886447
51:18.0,1435.164835
51:18.0,1423.443223
51:18.0,1411.721612
51:18.0,1397.069597
51:18.0,1381.684982
51:18.0,1367.765568
51:18.0,1353.846154
51:18.0,1337.728938
51:18.1,1322.344322
51:18.1,1306.959707
51:18.1,1292.307692
51:18.1,1278.388278
51:18.1,1265.934066
51:18.1,1254.945055
51:18.1,1246.153846
51:18.1,1240.29304
51:18.1,1235.897436
51:18.1,1231.501832
51:18.1,1226.373626
51:18.1,1224.175824
51:18.1,1218.315018
51:18.2,1213.919414
51:18.2,1209.52381
51:18.2,1204.395604
51:18.2,1197.802198
51:18.2,1190.47619
51:18.2,1180.952381
51:18.2,1172.893773
51:18.2,1167.765568
51:18.2,1166.300366
51:18.2,1166.300366
51:18.2,1165.567766
51:18.2,1165.567766
51:18.3,1165.567766
51:18.3,1165.567766
51:18.3,1167.765568
51:18.3,1166.300366
51:18.3,1164.102564
51:18.3,1162.637363
51:18.3,1160.43956
51:18.3,1158.974359
51:18.3,1159.70696
51:18.3,1161.172161
51:18.3,1163.369963
51:18.3,1165.567766
51:18.3,1168.498168
51:18.4,1169.96337
51:18.4,1170.695971
51:18.4,1171.428571
51:18.4,1172.893773
51:18.4,1174.358974
51:18.4,1179.487179
51:18.4,1181.684982
51:18.4,1184.615385
51:18.4,1188.278388
51:18.4,1191.208791
51:18.4,1196.336996
51:18.4,1203.663004
51:18.4,1210.989011
51:18.5,1218.315018
51:18.5,1221.978022
51:18.5,1227.106227
51:18.5,1227.838828
51:18.5,1226.373626
51:18.5,1222.710623
51:18.5,1219.78022
51:18.5,1217.582418
51:18.5,1213.919414
51:18.5,1213.186813
51:18.5,1210.989011
51:18.5,1207.326007
51:18.5,1201.465201
51:18.6,1197.069597
51:18.6,1193.406593
51:18.6,1189.74359
51:18.6,1189.010989
51:18.6,1186.813187
51:18.6,1188.278388
51:18.6,1192.673993
51:18.6,1197.802198
51:18.6,1205.128205
51:18.6,1215.384615
51:18.6,1230.03663
51:18.6,1249.81685
51:18.6,1276.923077
51:18.7,1312.820513
51:18.7,1355.311355
51:18.7,1402.930403
51:18.7,1453.479853
51:18.7,1505.494505
51:18.7,1556.776557
51:18.7,1605.128205
51:18.7,1647.619048
51:18.7,1682.783883
51:18.7,1709.89011
51:18.7,1731.135531
51:18.7,1746.520147
51:18.8,1758.241758
51:18.8,1764.102564
51:18.8,1766.300366
51:18.8,1765.567766
51:18.8,1761.904762
51:18.8,1755.311355
51:18.8,1747.985348
51:18.8,1734.065934
51:18.8,1718.681319
51:18.8,1698.901099
51:18.8,1676.190476
51:18.8,1653.479853
51:18.8,1629.304029
51:18.9,1610.25641
51:18.9,1598.534799
51:18.9,1589.010989
51:18.9,1581.684982
51:18.9,1577.289377
51:18.9,1575.091575
51:18.9,1575.091575
51:18.9,1577.289377
51:18.9,1579.487179
51:18.9,1579.487179
51:18.9,1580.21978
51:18.9,1578.754579
51:18.9,1574.358974
51:19.0,1567.032967
51:19.0,1559.70696
51:19.0,1550.915751
51:19.0,1539.194139
51:19.0,1527.472527
51:19.0,1513.553114
51:19.0,1498.168498
51:19.0,1482.051282
51:19.0,1464.468864
51:19.0,1446.153846
51:19.0,1430.03663
51:19.0,1410.989011
51:19.0,1394.871795
51:19.1,1374.358974
51:19.1,1354.578755
51:19.1,1335.531136
51:19.1,1317.948718
51:19.1,1304.761905
51:19.1,1293.040293
51:19.1,1282.051282
51:19.1,1274.725275
51:19.1,1268.131868
51:19.1,1261.538462
51:19.1,1252.747253
51:19.1,1244.688645
51:19.1,1238.095238
51:19.2,1234.432234
51:19.2,1231.501832
51:19.2,1228.571429
51:19.2,1227.838828
51:19.2,1231.501832
51:19.2,1230.03663
51:19.2,1224.908425
51:19.2,1217.582418
51:19.2,1211.721612
51:19.2,1208.058608
51:19.2,1205.128205
51:19.2,1205.860806
51:19.3,1207.326007
51:19.3,1208.058608
51:19.3,1209.52381
51:19.3,1208.791209
51:19.3,1207.326007
51:19.3,1207.326007
51:19.3,1207.326007
51:19.3,1208.058608
51:19.3,1210.25641
51:19.3,1211.721612
51:19.3,1213.186813
51:19.3,1215.384615
51:19.3,1218.315018
51:19.4,1220.512821
51:19.4,1221.245421
51:19.4,1222.710623
51:19.4,1223.443223
51:19.4,1221.978022
51:19.4,1222.710623
51:19.4,1221.245421
51:19.4,1221.245421
51:19.4,1221.245421
51:19.4,1220.512821
51:19.4,1216.849817
51:19.4,1217.582418
51:19.4,1215.384615
51:19.5,1210.989011
51:19.5,1205.860806
51:19.5,1201.465201
51:19.5,1200.732601
51:19.5,1203.663004
51:19.5,1209.52381
51:19.5,1214.652015
51:19.5,1219.78022
51:19.5,1224.908425
51:19.5,1229.304029
51:19.5,1230.03663
51:19.5,1227.106227
51:19.5,1221.245421
51:19.6,1213.919414
51:19.6,1207.326007
51:19.6,1202.197802
51:19.6,1199.267399
51:19.6,1199.267399
51:19.6,1202.930403
51:19.6,1204.395604
51:19.6,1205.860806
51:19.6,1208.791209
51:19.6,1210.25641
51:19.6,1213.919414
51:19.6,1224.175824
51:19.6,1233.699634
51:19.7,1247.619048
51:19.7,1263.736264
51:19.7,1287.179487
51:19.7,1317.216117
51:19.7,1356.776557
51:19.7,1404.395604
51:19.7,1457.875458
51:19.7,1513.553114
51:19.7,1572.161172
51:19.7,1625.641026
51:19.7,1675.457875
51:19.7,1723.076923
51:19.8,1762.637363
51:19.8,1794.139194
51:19.8,1817.582418
51:19.8,1832.967033
51:19.8,1841.025641
51:19.8,1839.56044
51:19.8,1835.897436
51:19.8,1828.571429
51:19.8,1818.315018
51:19.8,1807.326007
51:19.8,1794.871795
51:19.8,1780.952381
51:19.8,1769.230769
51:19.9,1752.380952
51:19.9,1734.065934
51:19.9,1712.820513
51:19.9,1693.772894
51:19.9,1672.527473
51:19.9,1651.282051
51:19.9,1629.304029
51:19.9,1607.326007
51:19.9,1588.278388
51:19.9,1573.626374
51:19.9,1563.369963
51:19.9,1558.974359
51:19.9,1556.043956
51:20.0,1556.776557
51:20.0,1556.043956
51:20.0,1555.311355
51:20.0,1556.043956
51:20.0,1552.380952
51:20.0,1545.787546
51:20.0,1540.659341
51:20.0,1531.868132
51:20.0,1520.879121
51:20.0,1509.157509
51:20.0,1496.703297
51:20.0,1482.783883
51:20.0,1468.864469
51:20.1,1457.875458
51:20.1,1446.153846
51:20.1,1432.234432
51:20.1,1420.512821
51:20.1,1406.593407
51:20.1,1394.871795
51:20.1,1380.21978
51:20.1,1367.032967
51:20.1,1352.380952
51:20.1,1337.728938
51:20.1,1325.274725
51:20.1,1312.820513
51:20.1,1301.831502
51:20.2,1294.505495
51:20.2,1289.377289
51:20.2,1286.446886
51:20.2,1282.051282
51:20.2,1280.586081
51:20.2,1279.120879
51:20.2,1276.190476
51:20.2,1273.992674
51:20.2,1270.32967
51:20.2,1267.399267
51:20.2,1264.468864
51:20.2,1260.07326
51:20.3,1256.410256
51:20.3,1251.282051
51:20.3,1246.153846
51:20.3,1237.362637
51:20.3,1229.304029
51:20.3,1221.245421
51:20.3,1216.117216
51:20.3,1211.721612
51:20.3,1208.791209
51:20.3,1208.058608
51:20.3,1207.326007
51:20.3,1205.860806
51:20.3,1203.663004
51:20.4,1205.128205
51:20.4,1205.860806
51:20.4,1205.860806
51:20.4,1207.326007
51:20.4,1207.326007
51:20.4,1206.593407
51:20.4,1205.128205
51:20.4,1205.128205
51:20.4,1203.663004
51:20.4,1201.465201
51:20.4,1201.465201
51:20.4,1201.465201
51:20.4,1200
51:20.5,1200.732601
51:20.5,1201.465201
51:20.5,1204.395604
51:20.5,1206.593407
51:20.5,1211.721612
51:20.5,1215.384615
51:20.5,1219.78022
51:20.5,1224.175824
51:20.5,1229.304029
51:20.5,1232.967033
51:20.5,1235.164835
51:20.5,1237.362637
51:20.5,1236.630037
51:20.6,1235.897436
51:20.6,1232.967033
51:20.6,1231.501832
51:20.6,1227.106227
51:20.6,1223.443223
51:20.6,1220.512821
51:20.6,1219.78022
51:20.6,1219.78022
51:20.6,1221.978022
51:20.6,1222.710623
51:20.6,1221.978022
51:20.6,1220.512821
51:20.6,1220.512821
51:20.7,1219.78022
51:20.7,1219.78022
51:20.7,1220.512821
51:20.7,1222.710623
51:20.7,1226.373626
51:20.7,1231.501832
51:20.7,1242.490842
51:20.7,1262.271062
51:20.7,1288.644689
51:20.7,1322.344322
51:20.7,1361.172161
51:20.7,1406.593407
51:20.8,1459.340659
51:20.8,1515.018315
51:20.8,1570.695971
51:20.8,1621.978022
51:20.8,1670.32967
51:20.8,1711.355311
51:20.8,1743.589744
51:20.8,1765.567766
51:20.8,1778.754579
51:20.8,1783.150183
51:20.8,1780.952381
51:20.8,1773.626374
51:20.8,1761.172161
51:20.9,1745.054945
51:20.9,1727.472527
51:20.9,1706.959707
51:20.9,1684.249084
51:20.9,1660.07326
51:20.9,1634.432234
51:20.9,1608.791209
51:20.9,1586.813187
51:20.9,1564.835165
51:20.9,1544.322344
51:20.9,1530.40293
51:20.9,1519.413919
51:20.9,1508.424908
51:21.0,1501.098901
51:21.0,1495.970696
51:21.0,1496.703297
51:21.0,1500.3663
51:21.0,1506.227106
51:21.0,1512.820513
51:21.0,1520.879121
51:21.0,1526.739927
51:21.0,1528.205128
51:21.0,1532.600733
51:21.0,1530.40293
51:21.0,1522.344322
51:21.0,1510.622711
51:21.1,1495.970696
51:21.1,1479.85348
51:21.1,1463.736264
51:21.1,1448.351648
51:21.1,1430.03663
51:21.1,1413.919414
51:21.1,1397.802198
51:21.1,1384.615385
51:21.1,1372.893773
51:21.1,1361.904762
51:21.1,1350.18315
51:21.1,1341.391941
51:21.1,1333.333333
51:21.2,1326.739927
51:21.2,1320.14652
51:21.2,1311.355311
51:21.2,1296.703297
51:21.2,1282.783883
51:21.2,1266.666667
51:21.2,1253.479853
51:21.2,1241.758242
51:21.2,1231.501832
51:21.2,1223.443223
51:21.2,1218.315018
51:21.2,1213.186813
51:21.3,1210.25641
51:21.3,1208.791209
51:21.3,1208.058608
51:21.3,1207.326007
51:21.3,1210.25641
51:21.3,1214.652015
51:21.3,1217.582418
51:21.3,1224.908425
51:21.3,1230.769231
51:21.3,1235.164835
51:21.3,1238.827839
51:21.3,1240.29304
51:21.3,1241.025641
51:21.4,1241.758242
51:21.4,1241.025641
51:21.4,1238.827839
51:21.4,1238.095238
51:21.4,1235.897436
51:21.4,1234.432234
51:21.4,1233.699634
51:21.4,1235.164835
51:21.4,1234.432234
51:21.4,1232.967033
51:21.4,1230.769231
51:21.4,1228.571429
51:21.4,1227.106227
51:21.5,1224.908425
51:21.5,1222.710623
51:21.5,1220.512821
51:21.5,1217.582418
51:21.5,1217.582418
51:21.5,1216.117216
51:21.5,1215.384615
51:21.5,1215.384615
51:21.5,1217.582418
51:21.5,1221.978022
51:21.5,1224.908425
51:21.5,1229.304029
51:21.5,1233.699634
51:21.6,1236.630037
51:21.6,1240.29304
51:21.6,1242.490842
51:21.6,1242.490842
51:21.6,1243.223443
51:21.6,1241.758242
51:21.6,1239.56044
51:21.6,1239.56044
51:21.6,1238.095238
51:21.6,1236.630037
51:21.6,1235.897436
51:21.6,1232.967033
51:21.6,1232.234432
51:21.7,1233.699634
51:21.7,1233.699634
51:21.7,1237.362637
51:21.7,1244.688645
51:21.7,1257.875458
51:21.7,1276.190476
51:21.7,1301.831502
51:21.7,1334.065934
51:21.7,1371.428571
51:21.7,1414.652015
51:21.7,1462.271062
51:21.7,1513.553114
51:21.8,1569.230769
51:21.8,1621.978022
51:21.8,1670.32967
51:21.8,1714.285714
51:21.8,1750.18315
51:21.8,1777.289377
51:21.8,1798.534799
51:21.8,1810.25641
51:21.8,1817.582418
51:21.8,1817.582418
51:21.8,1813.186813
51:21.8,1803.663004
51:21.8,1794.139194
51:21.9,1785.347985
51:21.9,1773.626374
51:21.9,1760.43956
51:21.9,1742.124542
51:21.9,1720.14652
51:21.9,1698.168498
51:21.9,1674.725275
51:21.9,1651.282051
51:21.9,1630.769231
51:21.9,1610.989011
51:21.9,1594.139194
51:21.9,1581.684982
51:21.9,1570.695971
51:22.0,1561.172161
51:22.0,1553.113553
51:22.0,1547.985348
51:22.0,1543.589744
51:22.0,1542.124542
51:22.0,1542.857143
51:22.0,1543.589744
51:22.0,1544.322344
51:22.0,1546.520147
51:22.0,1547.985348
51:22.0,1547.985348
51:22.0,1545.054945
51:22.0,1540.659341
51:22.1,1531.868132
51:22.1,1519.413919
51:22.1,1503.296703
51:22.1,1487.912088
51:22.1,1471.062271
51:22.1,1452.014652
51:22.1,1432.234432
51:22.1,1410.25641
51:22.1,1389.010989
51:22.1,1368.498168
51:22.1,1348.717949
51:22.1,1330.40293
51:22.1,1316.483516
51:22.2,1306.227106
51:22.2,1297.435897
51:22.2,1292.307692
51:22.2,1286.446886
51:22.2,1282.051282
51:22.2,1277.655678
51:22.2,1273.260073
51:22.2,1269.59707
51:22.2,1266.666667
51:22.2,1263.003663
51:22.2,1258.608059
51:22.2,1256.410256
51:22.3,1257.142857
51:22.3,1254.945055
51:22.3,1249.084249
51:22.3,1242.490842
51:22.3,1236.630037
51:22.3,1230.769231
51:22.3,1226.373626
51:22.3,1221.245421
51:22.3,1218.315018
51:22.3,1217.582418
51:22.3,1218.315018
51:22.3,1220.512821
51:22.3,1223.443223
51:22.4,1224.908425
51:22.4,1225.641026
51:22.4,1225.641026
51:22.4,1226.373626
51:22.4,1227.106227
51:22.4,1226.373626
51:22.4,1227.838828
51:22.4,1227.838828
51:22.4,1228.571429
51:22.4,1232.234432
51:22.4,1234.432234
51:22.4,1236.630037
51:22.4,1237.362637
51:22.5,1238.827839
51:22.5,1239.56044
51:22.5,1239.56044
51:22.5,1240.29304
51:22.5,1239.56044
51:22.5,1238.095238
51:22.5,1238.827839
51:22.5,1238.827839
51:22.5,1238.095238
51:22.5,1241.758242
51:22.5,1243.956044
51:22.5,1243.223443
51:22.5,1245.421245
51:22.6,1244.688645
51:22.6,1244.688645
51:22.6,1243.956044
51:22.6,1242.490842
51:22.6,1240.29304
51:22.6,1238.095238
51:22.6,1235.897436
51:22.6,1235.164835
51:22.6,1232.967033
51:22.6,1233.699634
51:22.6,1233.699634
51:22.6,1235.164835
51:22.7,1235.164835
51:22.7,1232.234432
51:22.7,1230.769231
51:22.7,1232.234432
51:22.7,1235.897436
51:22.7,1242.490842
51:22.7,1252.747253
51:22.7,1268.864469
51:22.7,1290.842491
51:22.7,1320.879121
51:22.7,1360.43956
51:22.7,1405.860806
51:22.7,1455.677656
51:22.8,1509.89011
51:22.8,1565.567766
51:22.8,1623.443223
51:22.8,1678.388278
51:22.8,1730.40293
51:22.8,1776.556777
51:22.8,1818.315018
51:22.8,1852.014652
51:22.8,1875.457875
51:22.8,1891.575092
51:22.8,1902.564103
51:22.8,1906.227106
51:22.8,1906.959707
51:22.9,1901.098901
51:22.9,1892.307692
51:22.9,1879.85348
51:22.9,1862.271062
51:22.9,1841.758242
51:22.9,1821.245421
51:22.9,1798.534799
51:22.9,1777.289377
51:22.9,1756.776557
51:22.9,1734.798535
51:22.9,1712.087912
51:22.9,1694.505495
51:22.9,1678.388278
51:23.0,1667.399267
51:23.0,1660.805861
51:23.0,1657.142857
51:23.0,1655.677656
51:23.0,1657.142857
51:23.0,1658.608059
51:23.0,1660.07326
51:23.0,1660.07326
51:23.0,1660.805861
51:23.0,1659.340659
51:23.0,1654.945055
51:23.0,1649.084249
51:23.0,1636.630037
51:23.1,1619.047619
51:23.1,1599.267399
51:23.1,1575.824176
51:23.1,1550.18315
51:23.1,1526.739927
51:23.1,1503.296703
51:23.1,1479.85348
51:23.1,1459.340659
51:23.1,1439.56044
51:23.1,1423.443223
51:23.1,1410.25641
51:23.1,1396.336996
51:23.1,1383.150183
51:23.2,1372.161172
51:23.2,1357.509158
51:23.2,1344.322344
51:23.2,1330.40293
51:23.2,1319.413919
51:23.2,1309.157509
51:23.2,1301.098901
51:23.2,1295.238095
51:23.2,1288.644689
51:23.2,1282.783883
51:23.2,1280.586081
51:23.2,1280.586081
51:23.3,1280.586081
51:23.3,1279.85348
51:23.3,1276.923077
51:23.3,1273.992674
51:23.3,1271.062271
51:23.3,1267.399267
51:23.3,1264.468864
51:23.3,1260.805861
51:23.3,1259.340659
51:23.3,1257.142857
51:23.3,1257.142857
51:23.3,1255.677656
51:23.3,1255.677656
51:23.4,1253.479853
51:23.4,1250.549451
51:23.4,1247.619048
51:23.4,1245.421245
51:23.4,1241.758242
51:23.4,1237.362637
51:23.4,1235.897436
51:23.4,1235.897436
51:23.4,1235.897436
51:23.4,1238.095238
51:23.4,1236.630037
51:23.4,1237.362637
51:23.4,1237.362637
51:23.5,1238.095238
51:23.5,1238.095238
51:23.5,1236.630037
51:23.5,1236.630037
51:23.5,1233.699634
51:23.5,1232.967033
51:23.5,1230.03663
51:23.5,1230.769231
51:23.5,1231.501832
51:23.5,1230.769231
51:23.5,1230.769231
51:23.5,1227.838828
51:23.5,1227.106227
51:23.6,1225.641026
51:23.6,1224.908425
51:23.6,1223.443223
51:23.6,1221.245421
51:23.6,1221.978022
51:23.6,1223.443223
51:23.6,1226.373626
51:23.6,1230.769231
51:23.6,1233.699634
51:23.6,1234.432234
51:23.6,1236.630037
51:23.6,1239.56044
51:23.6,1243.223443
51:23.7,1246.153846
51:23.7,1244.688645
51:23.7,1238.827839
51:23.7,1230.03663
51:23.7,1219.78022
51:23.7,1210.989011
51:23.7,1202.930403
51:23.7,1200
51:23.7,1200
51:23.7,1202.197802
51:23.7,1215.384615
51:23.7,1234.432234
51:23.8,1263.003663
51:23.8,1302.564103
51:23.8,1350.915751
51:23.8,1406.593407
51:23.8,1471.062271
51:23.8,1536.996337
51:23.8,1602.197802
51:23.8,1664.468864
51:23.8,1720.879121
51:23.8,1769.96337
51:23.8,1812.454212
51:23.8,1844.688645
51:23.8,1868.131868
51:23.9,1882.783883
51:23.9,1890.10989
51:23.9,1890.842491
51:23.9,1887.179487
51:23.9,1874.725275
51:23.9,1857.142857
51:23.9,1834.432234
51:23.9,1811.721612
51:23.9,1784.615385
51:23.9,1757.509158
51:23.9,1731.135531
51:23.9,1704.029304
51:23.9,1676.190476
51:24.0,1652.747253
51:24.0,1630.769231
51:24.0,1613.186813
51:24.0,1599.267399
51:24.0,1589.74359
51:24.0,1583.882784
51:24.0,1582.417582
51:24.0,1586.813187
51:24.0,1593.406593
51:24.0,1602.930403
51:24.0,1612.454212
51:24.0,1619.78022
51:24.0,1625.641026
51:24.1,1627.838828
51:24.1,1627.838828
51:24.1,1624.175824
51:24.1,1616.849817
51:24.1,1608.791209
51:24.1,1596.336996
51:24.1,1582.417582
51:24.1,1566.300366
51:24.1,1548.717949
51:24.1,1528.205128
51:24.1,1506.227106
51:24.1,1484.249084
51:24.2,1459.340659
51:24.2,1434.432234
51:24.2,1411.721612
51:24.2,1389.010989
51:24.2,1369.230769
51:24.2,1350.915751
51:24.2,1335.531136
51:24.2,1320.14652
51:24.2,1306.959707
51:24.2,1295.970696
51:24.2,1287.179487
51:24.2,1280.586081
51:24.2,1274.725275
51:24.3,1271.062271
51:24.3,1265.934066
51:24.3,1260.07326
51:24.3,1255.677656
51:24.3,1249.81685
51:24.3,1243.956044
51:24.3,1243.223443
51:24.3,1241.025641
51:24.3,1238.827839
51:24.3,1236.630037
51:24.3,1234.432234
51:24.3,1230.769231
51:24.3,1230.03663
51:24.4,1227.838828
51:24.4,1227.838828
51:24.4,1232.234432
51:24.4,1235.897436
51:24.4,1239.56044
51:24.4,1241.758242
51:24.4,1243.956044
51:24.4,1246.886447
51:24.4,1246.886447
51:24.4,1249.81685
51:24.4,1254.212454
51:24.4,1257.875458
51:24.4,1262.271062
51:24.5,1264.468864
51:24.5,1265.934066
51:24.5,1266.666667
51:24.5,1263.736264
51:24.5,1258.608059
51:24.5,1254.212454
51:24.5,1249.81685
51:24.5,1246.886447
51:24.5,1245.421245
51:24.5,1243.956044
51:24.5,1243.223443
51:24.5,1238.827839
51:24.5,1235.164835
51:24.6,1231.501832
51:24.6,1230.03663
51:24.6,1228.571429
51:24.6,1226.373626
51:24.6,1224.175824
51:24.6,1222.710623
51:24.6,1221.245421
51:24.6,1219.047619
51:24.6,1217.582418
51:24.6,1217.582418
51:24.6,1215.384615
51:24.6,1216.849817
51:24.6,1215.384615
51:24.7,1216.849817
51:24.7,1219.047619
51:24.7,1223.443223
51:24.7,1232.967033
51:24.7,1243.223443
51:24.7,1253.479853
51:24.7,1268.131868
51:24.7,1283.516484
51:24.7,1304.761905
51:24.7,1330.40293
51:24.7,1361.904762
51:24.7,1400.732601
51:24.8,1445.421245
51:24.8,1493.772894
51:24.8,1542.124542
51:24.8,1590.47619
51:24.8,1637.362637
51:24.8,1679.120879
51:24.8,1716.483516
51:24.8,1744.322344
51:24.8,1764.835165
51:24.8,1778.754579
51:24.8,1786.813187
51:24.8,1786.813187
51:24.8,1780.952381
51:24.9,1769.96337
51:24.9,1754.578755
51:24.9,1735.531136
51:24.9,1715.018315
51:24.9,1691.575092
51:24.9,1667.399267
51:24.9,1641.758242
51:24.9,1616.117216
51:24.9,1589.74359
51:24.9,1566.300366
51:24.9,1548.717949
51:24.9,1535.531136
51:24.9,1523.809524
51:25.0,1517.948718
51:25.0,1514.285714
51:25.0,1512.087912
51:25.0,1512.820513
51:25.0,1515.018315
51:25.0,1517.948718
51:25.0,1525.274725
51:25.0,1531.868132
51:25.0,1536.996337
51:25.0,1539.92674
51:25.0,1540.659341
51:25.0,1538.461538
51:25.0,1535.531136
51:25.1,1528.205128
51:25.1,1520.879121
51:25.1,1509.89011
51:25.1,1496.703297
51:25.1,1483.516484
51:25.1,1467.399267
51:25.1,1453.479853
51:25.1,1435.897436
51:25.1,1417.582418
51:25.1,1399.267399
51:25.1,1380.21978
51:25.1,1362.637363
51:25.1,1345.054945
51:25.2,1331.135531
51:25.2,1320.14652
51:25.2,1315.018315
51:25.2,1309.89011
51:25.2,1306.227106
51:25.2,1305.494505
51:25.2,1304.029304
51:25.2,1301.831502
51:25.2,1301.831502
51:25.2,1298.901099
51:25.2,1296.703297
51:25.2,1291.575092
51:25.3,1286.446886
51:25.3,1279.85348
51:25.3,1273.260073
51:25.3,1268.864469
51:25.3,1265.201465
51:25.3,1261.538462
51:25.3,1260.805861
51:25.3,1262.271062
51:25.3,1262.271062
51:25.3,1262.271062
51:25.3,1259.340659
51:25.3,1256.410256
51:25.3,1253.479853
51:25.4,1247.619048
51:25.4,1241.025641
51:25.4,1235.897436
51:25.4,1230.03663
51:25.4,1225.641026
51:25.4,1224.908425
51:25.4,1224.908425
51:25.4,1226.373626
51:25.4,1227.838828
51:25.4,1231.501832
51:25.4,1238.827839
51:25.4,1243.956044
51:25.4,1251.282051
51:25.5,1257.875458
51:25.5,1264.468864
51:25.5,1273.260073
51:25.5,1279.120879
51:25.5,1282.783883
51:25.5,1284.249084
51:25.5,1284.249084
51:25.5,1279.85348
51:25.5,1275.457875
51:25.5,1270.32967
51:25.5,1266.666667
51:25.5,1261.538462
51:25.5,1252.747253
51:25.6,1241.758242
51:25.6,1229.304029
51:25.6,1219.047619
51:25.6,1212.454212
51:25.6,1207.326007
51:25.6,1205.128205
51:25.6,1205.860806
51:25.6,1205.860806
51:25.6,1209.52381
51:25.6,1216.117216
51:25.6,1227.106227
51:25.6,1247.619048
51:25.6,1275.457875
51:25.7,1313.553114
51:25.7,1360.43956
51:25.7,1416.849817
51:25.7,1482.051282
51:25.7,1550.18315
51:25.7,1626.373626
51:25.7,1701.831502
51:25.7,1774.358974
51:25.7,1842.490842
51:25.7,1900.3663
51:25.7,1947.252747
51:25.7,1983.882784
51:25.8,2009.52381
51:25.8,2021.245421
51:25.8,2022.710623
51:25.8,2015.384615
51:25.8,2003.663004
51:25.8,1986.813187
51:25.8,1967.765568
51:25.8,1945.054945
51:25.8,1922.344322
51:25.8,1896.703297
51:25.8,1868.131868
51:25.8,1841.025641
51:25.8,1809.52381
51:25.9,1780.21978
51:25.9,1752.380952
51:25.9,1726.739927
51:25.9,1702.564103
51:25.9,1682.783883
51:25.9,1666.666667
51:25.9,1655.677656
51:25.9,1649.084249
51:25.9,1646.153846
51:25.9,1647.619048
51:25.9,1648.351648
51:25.9,1649.81685
51:25.9,1651.282051
51:26.0,1649.81685
51:26.0,1649.084249
51:26.0,1644.688645
51:26.0,1638.827839
51:26.0,1633.699634
51:26.0,1624.908425
51:26.0,1612.454212
51:26.0,1599.267399
51:26.0,1584.615385
51:26.0,1569.230769
51:26.0,1551.648352
51:26.0,1532.600733
51:26.0,1513.553114
51:26.1,1494.505495
51:26.1,1476.190476
51:26.1,1459.340659
51:26.1,1443.956044
51:26.1,1431.501832
51:26.1,1418.315018
51:26.1,1407.326007
51:26.1,1398.534799
51:26.1,1390.47619
51:26.1,1383.150183
51:26.1,1375.824176
51:26.1,1369.96337
51:26.1,1361.904762
51:26.2,1353.113553
51:26.2,1347.252747
51:26.2,1340.659341
51:26.2,1334.065934
51:26.2,1329.67033
51:26.2,1324.542125
51:26.2,1319.413919
51:26.2,1314.285714
51:26.2,1307.692308
51:26.2,1296.703297
51:26.2,1284.981685
51:26.2,1274.725275
51:26.3,1265.934066
51:26.3,1258.608059
51:26.3,1252.747253
51:26.3,1245.421245
51:26.3,1240.29304
51:26.3,1237.362637
51:26.3,1235.897436
51:26.3,1234.432234
51:26.3,1235.164835
51:26.3,1235.164835
51:26.3,1236.630037
51:26.3,1238.095238
51:26.3,1240.29304
51:26.4,1240.29304
51:26.4,1241.025641
51:26.4,1241.758242
51:26.4,1241.758242
51:26.4,1243.223443
51:26.4,1243.956044
51:26.4,1243.956044
51:26.4,1243.956044
51:26.4,1241.758242
51:26.4,1241.025641
51:26.4,1240.29304
51:26.4,1238.095238
51:26.4,1237.362637
51:26.5,1237.362637
51:26.5,1237.362637
51:26.5,1239.56044
51:26.5,1238.095238
51:26.5,1235.897436
51:26.5,1232.967033
51:26.5,1227.838828
51:26.5,1224.908425
51:26.5,1219.047619
51:26.5,1213.186813
51:26.5,1206.593407
51:26.5,1202.930403
51:26.5,1205.128205
51:26.6,1208.058608
51:26.6,1213.919414
51:26.6,1223.443223
51:26.6,1235.897436
51:26.6,1254.212454
51:26.6,1280.586081
51:26.6,1314.285714
51:26.6,1358.974359
51:26.6,1417.582418
51:26.6,1484.249084
51:26.6,1559.70696
51:26.6,1641.025641
51:26.6,1723.076923
51:26.7,1802.197802
51:26.7,1873.260073
51:26.7,1934.798535
51:26.7,1987.545788
51:26.7,2029.304029
51:26.7,2062.271062
51:26.7,2084.249084
51:26.7,2098.168498
51:26.7,2107.692308
51:26.7,2108.424908
51:26.7,2101.098901
51:26.7,2089.377289
51:26.8,2073.260073
51:26.8,2054.212454
51:26.8,2032.234432
51:26.8,2005.128205
51:26.8,1972.893773
51:26.8,1941.391941
51:26.8,1907.692308
51:26.8,1873.260073
51:26.8,1841.025641
51:26.8,1810.25641
51:26.8,1783.150183
51:26.8,1759.70696
51:26.8,1738.461538
51:26.9,1720.879121
51:26.9,1709.89011
51:26.9,1701.831502
51:26.9,1697.435897
51:26.9,1698.168498
51:26.9,1698.901099
51:26.9,1699.6337
51:26.9,1701.831502
51:26.9,1701.098901
51:26.9,1698.901099
51:26.9,1695.238095
51:26.9,1687.179487
51:26.9,1678.388278
51:27.0,1666.666667
51:27.0,1653.479853
51:27.0,1640.29304
51:27.0,1626.373626
51:27.0,1611.721612
51:27.0,1596.336996
51:27.0,1577.289377
51:27.0,1558.241758
51:27.0,1538.461538
51:27.0,1520.14652
51:27.0,1505.494505
51:27.0,1493.040293
51:27.0,1480.586081
51:27.1,1467.399267
51:27.1,1453.479853
51:27.1,1439.56044
51:27.1,1422.710623
51:27.1,1408.058608
51:27.1,1390.47619
51:27.1,1372.893773
51:27.1,1358.241758
51:27.1,1342.857143
51:27.1,1329.67033
51:27.1,1318.681319
51:27.1,1308.424908
51:27.1,1300.3663
51:27.2,1293.040293
51:27.2,1287.912088
51:27.2,1284.249084
51:27.2,1281.318681
51:27.2,1279.85348
51:27.2,1279.120879
51:27.2,1278.388278
51:27.2,1277.655678
51:27.2,1275.457875
51:27.2,1271.062271
51:27.2,1260.07326
51:27.2,1250.549451
51:27.3,1239.56044
51:27.3,1231.501832
51:27.3,1225.641026
51:27.3,1227.106227
51:27.3,1229.304029
51:27.3,1232.234432
51:27.3,1235.164835
51:27.3,1236.630037
51:27.3,1236.630037
51:27.3,1233.699634
51:27.3,1231.501832
51:27.3,1227.106227
51:27.3,1223.443223
51:27.4,1218.315018
51:27.4,1215.384615
51:27.4,1211.721612
51:27.4,1208.058608
51:27.4,1206.593407
51:27.4,1206.593407
51:27.4,1204.395604
51:27.4,1200.732601
51:27.4,1198.534799
51:27.4,1197.069597
51:27.4,1195.604396
51:27.4,1194.871795
51:27.4,1194.139194
51:27.5,1192.673993
51:27.5,1191.208791
51:27.5,1189.010989
51:27.5,1186.813187
51:27.5,1184.615385
51:27.5,1183.882784
51:27.5,1182.417582
51:27.5,1181.684982
51:27.5,1178.754579
51:27.5,1176.556777
51:27.5,1174.358974
51:27.5,1175.824176
51:27.5,1180.21978
51:27.6,1191.941392
51:27.6,1210.989011
51:27.6,1241.025641
51:27.6,1281.318681
51:27.6,1334.065934
51:27.6,1397.802198
51:27.6,1472.527473
51:27.6,1553.846154
51:27.6,1638.827839
51:27.6,1723.076923
51:27.6,1801.465201
51:27.6,1869.59707
51:27.6,1929.67033
51:27.7,1980.21978
51:27.7,2020.512821
51:27.7,2045.421245
51:27.7,2059.340659
51:27.7,2063.736264
51:27.7,2059.340659
51:27.7,2049.084249
51:27.7,2032.234432
51:27.7,2011.721612
51:27.7,1988.278388
51:27.7,1961.172161
51:27.7,1933.333333
51:27.8,1904.761905
51:27.8,1874.725275
51:27.8,1843.223443
51:27.8,1810.989011
51:27.8,1778.021978
51:27.8,1748.717949
51:27.8,1721.611722
51:27.8,1698.901099
51:27.8,1680.586081
51:27.8,1670.32967
51:27.8,1662.271062
51:27.8,1663.736264
51:27.8,1666.666667
51:27.9,1675.457875
51:27.9,1686.446886
51:27.9,1694.505495
51:27.9,1700.3663
51:27.9,1701.098901
51:27.9,1701.831502
51:27.9,1697.435897
51:27.9,1689.377289
51:27.9,1678.388278
51:27.9,1663.736264
51:27.9,1646.153846
51:27.9,1624.908425
51:27.9,1600.732601
51:28.0,1574.358974
51:28.0,1548.717949
51:28.0,1520.879121
51:28.0,1494.505495
51:28.0,1467.399267
51:28.0,1442.490842
51:28.0,1417.582418
51:28.0,1395.604396
51:28.0,1375.824176
51:28.0,1359.70696
51:28.0,1345.054945
51:28.0,1334.798535
51:28.0,1323.809524
51:28.1,1313.553114
51:28.1,1306.227106
51:28.1,1299.6337
51:28.1,1291.575092
51:28.1,1286.446886
51:28.1,1280.586081
51:28.1,1276.923077
51:28.1,1274.725275
51:28.1,1276.923077
51:28.1,1276.923077
51:28.1,1275.457875
51:28.1,1272.527473
51:28.1,1269.59707
51:28.2,1263.736264
51:28.2,1261.538462
51:28.2,1260.07326
51:28.2,1258.608059
51:28.2,1257.875458
51:28.2,1257.875458
51:28.2,1253.479853
51:28.2,1249.81685
51:28.2,1248.351648
51:28.2,1247.619048
51:28.2,1246.886447
51:28.2,1246.886447
51:28.3,1243.956044
51:28.3,1240.29304
51:28.3,1234.432234
51:28.3,1230.03663
51:28.3,1224.908425
51:28.3,1219.78022
51:28.3,1210.989011
51:28.3,1200
51:28.3,1189.010989
51:28.3,1177.289377
51:28.3,1169.96337
51:28.3,1164.835165
51:28.3,1161.172161
51:28.4,1163.369963
51:28.4,1164.835165
51:28.4,1167.032967
51:28.4,1168.498168
51:28.4,1170.695971
51:28.4,1170.695971
51:28.4,1174.358974
51:28.4,1178.021978
51:28.4,1185.347985
51:28.4,1190.47619
51:28.4,1194.139194
51:28.4,1197.069597
51:28.4,1200
51:28.5,1202.930403
51:28.5,1205.128205
51:28.5,1212.454212
51:28.5,1224.175824
51:28.5,1241.758242
51:28.5,1267.399267
51:28.5,1304.761905
51:28.5,1353.846154
51:28.5,1414.652015
51:28.5,1484.981685
51:28.5,1564.835165
51:28.5,1649.084249
51:28.5,1734.065934
51:28.6,1813.919414
51:28.6,1887.179487
51:28.6,1951.648352
51:28.6,2003.663004
51:28.6,2041.025641
51:28.6,2067.399267
51:28.6,2082.051282
51:28.6,2087.912088
51:28.6,2082.783883
51:28.6,2073.992674
51:28.6,2058.608059
51:28.6,2039.56044
51:28.6,2017.582418
51:28.7,1996.336996
51:28.7,1970.695971
51:28.7,1939.92674
51:28.7,1906.959707
51:28.7,1871.794872
51:28.7,1835.897436
51:28.7,1799.267399
51:28.7,1763.369963
51:28.7,1726.739927
51:28.7,1694.505495
51:28.7,1665.201465
51:28.7,1642.490842
51:28.8,1626.373626
51:28.8,1616.117216
51:28.8,1613.186813
51:28.8,1616.117216
51:28.8,1624.175824
51:28.8,1635.897436
51:28.8,1651.282051
51:28.8,1663.003663
51:28.8,1673.260073
51:28.8,1681.318681
51:28.8,1682.051282
51:28.8,1679.120879
51:28.8,1669.59707
51:28.9,1658.608059
51:28.9,1642.490842
51:28.9,1623.443223
51:28.9,1601.465201
51:28.9,1575.824176
51:28.9,1548.717949
51:28.9,1517.948718
51:28.9,1485.714286
51:28.9,1453.479853
51:28.9,1422.710623
51:28.9,1398.534799
51:28.9,1375.824176
51:28.9,1354.578755
51:29.0,1334.798535
51:29.0,1316.483516
51:29.0,1300.3663
51:29.0,1287.179487
51:29.0,1276.923077
51:29.0,1267.399267
51:29.0,1260.805861
51:29.0,1252.747253
51:29.0,1248.351648
51:29.0,1243.223443
51:29.0,1240.29304
51:29.0,1241.758242
51:29.0,1242.490842
51:29.1,1243.223443
51:29.1,1241.758242
51:29.1,1238.827839
51:29.1,1235.164835
51:29.1,1230.03663
51:29.1,1228.571429
51:29.1,1231.501832
51:29.1,1235.164835
51:29.1,1237.362637
51:29.1,1240.29304
51:29.1,1241.025641
51:29.1,1242.490842
51:29.1,1242.490842
51:29.2,1243.223443
51:29.2,1241.758242
51:29.2,1241.025641
51:29.2,1241.025641
51:29.2,1239.56044
51:29.2,1235.897436
51:29.2,1231.501832
51:29.2,1224.908425
51:29.2,1217.582418
51:29.2,1210.25641
51:29.2,1200
51:29.2,1192.673993
51:29.3,1182.417582
51:29.3,1171.428571
51:29.3,1158.241758
51:29.3,1147.985348
51:29.3,1138.461538
51:29.3,1132.600733
51:29.3,1127.472527
51:29.3,1124.542125
51:29.3,1122.344322
51:29.3,1123.076923
51:29.3,1126.739927
51:29.3,1131.135531
51:29.3,1136.996337
51:29.4,1140.659341
51:29.4,1145.054945
51:29.4,1145.787546
51:29.4,1143.589744
51:29.4,1139.194139
51:29.4,1136.996337
51:29.4,1134.798535
51:29.4,1135.531136
51:29.4,1136.996337
51:29.4,1141.391941
51:29.4,1147.252747
51:29.4,1161.172161
51:29.4,1180.21978
51:29.5,1211.721612
51:29.5,1252.747253
51:29.5,1307.692308
51:29.5,1373.626374
51:29.5,1451.282051
51:29.5,1536.263736
51:29.5,1624.908425
51:29.5,1714.285714
51:29.5,1797.802198
51:29.5,1871.794872
51:29.5,1936.263736
51:29.5,1991.208791
51:29.5,2032.967033
51:29.6,2065.934066
51:29.6,2088.644689
51:29.6,2109.89011
51:29.6,2121.611722
51:29.6,2126.007326
51:29.6,2125.274725
51:29.6,2117.948718
51:29.6,2108.424908
51:29.6,2094.505495
51:29.6,2078.388278
51:29.6,2057.142857
51:29.6,2032.967033
51:29.6,2005.128205
51:29.7,1975.091575
51:29.7,1942.857143
51:29.7,1906.227106
51:29.7,1871.062271
51:29.7,1838.095238
51:29.7,1808.058608
51:29.7,1780.952381
51:29.7,1758.974359
51:29.7,1739.194139
51:29.7,1726.007326
51:29.7,1715.018315
51:29.7,1709.157509
51:29.8,1704.029304
51:29.8,1701.831502
51:29.8,1700.3663
51:29.8,1697.435897
51:29.8,1692.307692
51:29.8,1684.981685
51:29.8,1677.655678
51:29.8,1666.666667
51:29.8,1657.142857
51:29.8,1645.421245
51:29.8,1632.234432
51:29.8,1613.919414
51:29.8,1594.139194
51:29.9,1569.96337
51:29.9,1544.322344
51:29.9,1517.216117
51:29.9,1492.307692
51:29.9,1470.32967
51:29.9,1451.282051
51:29.9,1432.234432
51:29.9,1412.454212
51:29.9,1393.406593
51:29.9,1375.091575
51:29.9,1357.509158
51:29.9,1342.124542
51:29.9,1330.40293
51:30.0,1320.14652
51:30.0,1310.622711
51:30.0,1298.168498
51:30.0,1287.179487
51:30.0,1273.260073
51:30.0,1260.805861
51:30.0,1246.886447
51:30.0,1235.164835
51:30.0,1227.106227
51:30.0,1222.710623
51:30.0,1219.78022
51:30.0,1219.78022
51:30.0,1221.245421
51:30.1,1221.245421
51:30.1,1224.175824
51:30.1,1227.838828
51:30.1,1230.03663
51:30.1,1230.769231
51:30.1,1231.501832
51:30.1,1233.699634
51:30.1,1233.699634
51:30.1,1230.769231
51:30.1,1227.838828
51:30.1,1225.641026
51:30.1,1222.710623
51:30.1,1217.582418
51:30.2,1212.454212
51:30.2,1208.791209
51:30.2,1204.395604
51:30.2,1198.534799
51:30.2,1192.673993
51:30.2,1184.615385
51:30.2,1179.487179
51:30.2,1175.091575
51:30.2,1167.032967
51:30.2,1162.637363
51:30.2,1156.043956
51:30.2,1150.18315
51:30.3,1147.252747
51:30.3,1149.450549
51:30.3,1153.113553
51:30.3,1156.776557
51:30.3,1159.70696
51:30.3,1164.102564
51:30.3,1165.567766
51:30.3,1165.567766
51:30.3,1164.102564
51:30.3,1161.172161
51:30.3,1154.578755
51:30.3,1144.322344
51:30.3,1133.333333
51:30.4,1123.809524
51:30.4,1113.553114
51:30.4,1105.494505
51:30.4,1099.6337
51:30.4,1097.435897
51:30.4,1097.435897
51:30.4,1098.168498
51:30.4,1099.6337
51:30.4,1104.029304
51:30.4,1108.424908
51:30.4,1112.820513
51:30.4,1119.413919
51:30.4,1126.739927
51:30.5,1134.798535
51:30.5,1148.717949
51:30.5,1173.626374
51:30.5,1210.989011
51:30.5,1265.201465
51:30.5,1334.798535
51:30.5,1419.78022
51:30.5,1512.087912
51:30.5,1608.058608
51:30.5,1701.831502
51:30.5,1791.941392
51:30.5,1873.260073
51:30.5,1943.589744
51:30.6,2004.395604
51:30.6,2053.479853
51:30.6,2087.179487
51:30.6,2106.959707
51:30.6,2114.285714
51:30.6,2111.355311
51:30.6,2101.831502
51:30.6,2084.981685
51:30.6,2065.934066
51:30.6,2042.490842
51:30.6,2016.849817
51:30.6,1988.278388
51:30.6,1961.904762
51:30.7,1932.600733
51:30.7,1904.029304
51:30.7,1868.131868
51:30.7,1828.571429
51:30.7,1785.347985
51:30.7,1747.985348
51:30.7,1714.285714
51:30.7,1685.714286
51:30.7,1663.736264
51:30.7,1650.549451
51:30.7,1641.025641
51:30.7,1639.56044
51:30.8,1643.223443
51:30.8,1652.014652
51:30.8,1662.271062
51:30.8,1671.062271
51:30.8,1678.388278
51:30.8,1681.318681
51:30.8,1682.783883
51:30.8,1679.120879
51:30.8,1668.864469
51:30.8,1655.677656
51:30.8,1636.630037
51:30.8,1615.384615
51:30.8,1588.278388
51:30.9,1561.172161
51:30.9,1531.135531
51:30.9,1501.098901
51:30.9,1472.527473
51:30.9,1443.223443
51:30.9,1413.919414
51:30.9,1385.347985
51:30.9,1357.509158
51:30.9,1332.600733
51:30.9,1311.355311
51:30.9,1298.168498
51:30.9,1288.644689
51:30.9,1279.85348
51:31.0,1273.992674
51:31.0,1267.399267
51:31.0,1260.805861
51:31.0,1254.945055
51:31.0,1251.282051
51:31.0,1246.153846
51:31.0,1241.025641
51:31.0,1239.56044
51:31.0,1235.164835
51:31.0,1232.234432
51:31.0,1230.769231
51:31.0,1229.304029
51:31.0,1226.373626
51:31.1,1220.512821
51:31.1,1213.919414
51:31.1,1205.128205
51:31.1,1194.871795
51:31.1,1187.545788
51:31.1,1180.952381
51:31.1,1175.824176
51:31.1,1172.161172
51:31.1,1170.695971
51:31.1,1168.498168
51:31.1,1164.835165
51:31.1,1161.904762
51:31.1,1158.241758
51:31.2,1156.043956
51:31.2,1152.380952
51:31.2,1150.18315
51:31.2,1148.717949
51:31.2,1146.520147
51:31.2,1145.787546
51:31.2,1144.322344
51:31.2,1142.124542
51:31.2,1139.194139
51:31.2,1139.92674
51:31.2,1140.659341
51:31.2,1141.391941
51:31.3,1143.589744
51:31.3,1144.322344
51:31.3,1142.857143
51:31.3,1143.589744
51:31.3,1142.124542
51:31.3,1140.659341
51:31.3,1137.728938
51:31.3,1136.263736
51:31.3,1134.798535
51:31.3,1135.531136
51:31.3,1134.798535
51:31.3,1134.065934
51:31.3,1131.868132
51:31.4,1128.937729
51:31.4,1128.205128
51:31.4,1126.739927
51:31.4,1124.542125
51:31.4,1122.344322
51:31.4,1122.344322
51:31.4,1121.611722
51:31.4,1122.344322
51:31.4,1121.611722
51:31.4,1120.879121
51:31.4,1120.14652
51:31.4,1118.681319
51:31.4,1120.14652
51:31.5,1123.809524
51:31.5,1132.600733
51:31.5,1145.787546
51:31.5,1169.230769
51:31.5,1197.802198
51:31.5,1236.630037
51:31.5,1282.783883
51:31.5,1342.124542
51:31.5,1412.454212
51:31.5,1493.040293
51:31.5,1576.556777
51:31.5,1658.608059
51:31.5,1734.065934
51:31.6,1798.534799
51:31.6,1851.282051
51:31.6,1890.842491
51:31.6,1915.018315
51:31.6,1926.007326
51:31.6,1926.007326
51:31.6,1918.681319
51:31.6,1907.692308
51:31.6,1889.377289
51:31.6,1865.934066
51:31.6,1839.56044
51:31.6,1810.25641
51:31.6,1778.754579
51:31.7,1745.787546
51:31.7,1711.355311
51:31.7,1676.923077
51:31.7,1643.956044
51:31.7,1612.454212
51:31.7,1583.150183
51:31.7,1557.509158
51:31.7,1536.263736
51:31.7,1517.948718
51:31.7,1505.494505
51:31.7,1500.3663
51:31.7,1501.098901
51:31.8,1506.959707
51:31.8,1513.553114
51:31.8,1521.611722
51:31.8,1528.205128
51:31.8,1534.798535
51:31.8,1539.194139
51:31.8,1541.391941
51:31.8,1539.92674
51:31.8,1535.531136
51:31.8,1529.67033
51:31.8,1520.14652
51:31.8,1507.692308
51:31.8,1492.307692
51:31.9,1476.190476
51:31.9,1457.875458
51:31.9,1440.29304
51:31.9,1419.78022
51:31.9,1400
51:31.9,1378.021978
51:31.9,1356.776557
51:31.9,1333.333333
51:31.9,1313.553114
51:31.9,1294.505495
51:31.9,1277.655678
51:31.9,1262.271062
51:31.9,1251.282051
51:32.0,1239.56044
51:32.0,1230.03663
51:32.0,1219.78022
51:32.0,1211.721612
51:32.0,1205.128205
51:32.0,1200
51:32.0,1194.139194
51:32.0,1190.47619
51:32.0,1183.150183
51:32.0,1175.824176
51:32.0,1169.230769
51:32.0,1162.637363
51:32.0,1156.776557
51:32.1,1153.846154
51:32.1,1150.18315
51:32.1,1150.18315
51:32.1,1152.380952
51:32.1,1158.974359
51:32.1,1165.567766
51:32.1,1173.626374
51:32.1,1178.021978
51:32.1,1181.684982
51:32.1,1184.615385
51:32.1,1187.545788
51:32.1,1190.47619
51:32.2,1191.941392
51:32.2,1191.208791
51:32.2,1189.010989
51:32.2,1184.615385
51:32.2,1180.952381
51:32.2,1178.021978
51:32.2,1174.358974
51:32.2,1171.428571
51:32.2,1168.498168
51:32.2,1164.835165
51:32.2,1160.43956
51:32.2,1153.846154
51:32.2,1147.252747
51:32.3,1140.659341
51:32.3,1134.065934
51:32.3,1128.937729
51:32.3,1124.542125
51:32.3,1120.879121
51:32.3,1117.948718
51:32.3,1116.483516
51:32.3,1117.948718
51:32.3,1120.879121
51:32.3,1124.542125
51:32.3,1128.937729
51:32.3,1136.263736
51:32.3,1143.589744
51:32.4,1151.648352
51:32.4,1156.776557
51:32.4,1162.637363
51:32.4,1165.567766
51:32.4,1163.369963
51:32.4,1158.241758
51:32.4,1153.846154
51:32.4,1147.252747
51:32.4,1142.857143
51:32.4,1139.92674
51:32.4,1141.391941
51:32.4,1146.520147
51:32.4,1160.43956
51:32.5,1181.684982
51:32.5,1215.384615
51:32.5,1263.003663
51:32.5,1320.14652
51:32.5,1384.615385
51:32.5,1455.677656
51:32.5,1530.40293
51:32.5,1602.930403
51:32.5,1671.062271
51:32.5,1732.600733
51:32.5,1787.545788
51:32.5,1834.432234
51:32.5,1871.062271
51:32.6,1900.3663
51:32.6,1920.14652
51:32.6,1931.868132
51:32.6,1933.333333
51:32.6,1929.67033
51:32.6,1916.483516
51:32.6,1898.168498
51:32.6,1874.725275
51:32.6,1851.282051
51:32.6,1823.443223
51:32.6,1795.604396
51:32.6,1767.032967
51:32.6,1742.124542
51:32.7,1715.018315
51:32.7,1687.179487
51:32.7,1660.07326
51:32.7,1635.164835
51:32.7,1610.25641
51:32.7,1589.010989
51:32.7,1569.96337
51:32.7,1556.776557
51:32.7,1545.787546
51:32.7,1539.92674
51:32.7,1534.798535
51:32.7,1532.600733
51:32.8,1531.135531
51:32.8,1531.868132
51:32.8,1531.135531
51:32.8,1531.135531
51:32.8,1529.67033
51:32.8,1524.542125
51:32.8,1516.483516
51:32.8,1507.692308
51:32.8,1496.703297
51:32.8,1482.051282
51:32.8,1465.201465
51:32.8,1447.619048
51:32.8,1429.304029
51:32.9,1410.989011
51:32.9,1392.673993
51:32.9,1374.358974
51:32.9,1360.43956
51:32.9,1346.520147
51:32.9,1331.135531
51:32.9,1317.948718
51:32.9,1304.029304
51:32.9,1289.377289
51:32.9,1274.725275
51:32.9,1265.201465
51:32.9,1255.677656
51:32.9,1246.153846
51:33.0,1235.164835
51:33.0,1226.373626
51:33.0,1220.512821
51:33.0,1220.512821
51:33.0,1224.175824
51:33.0,1229.304029
51:33.0,1234.432234
51:33.0,1235.897436
51:33.0,1232.234432
51:33.0,1227.106227
51:33.0,1221.978022
51:33.0,1213.919414
51:33.0,1205.128205
51:33.1,1195.604396
51:33.1,1186.813187
51:33.1,1179.487179
51:33.1,1173.626374
51:33.1,1168.498168
51:33.1,1165.567766
51:33.1,1161.904762
51:33.1,1160.43956
51:33.1,1159.70696
51:33.1,1160.43956
51:33.1,1158.974359
51:33.1,1156.043956
51:33.1,1151.648352
51:33.2,1147.252747
51:33.2,1142.857143
51:33.2,1138.461538
51:33.2,1131.135531
51:33.2,1125.274725
51:33.2,1117.948718
51:33.2,1112.087912
51:33.2,1108.424908
51:33.2,1108.424908
51:33.2,1106.959707
51:33.2,1107.692308
51:33.2,1106.227106
51:33.3,1107.692308
51:33.3,1109.157509
51:33.3,1109.89011
51:33.3,1112.820513
51:33.3,1115.018315
51:33.3,1119.413919
51:33.3,1122.344322
51:33.3,1123.809524
51:33.3,1125.274725
51:33.3,1129.67033
51:33.3,1132.600733
51:33.3,1134.798535
51:33.3,1134.065934
51:33.4,1132.600733
51:33.4,1128.205128
51:33.4,1123.076923
51:33.4,1119.413919
51:33.4,1118.681319
51:33.4,1118.681319
51:33.4,1120.14652
51:33.4,1121.611722
51:33.4,1123.076923
51:33.4,1124.542125
51:33.4,1127.472527
51:33.4,1131.868132
51:33.4,1138.461538
51:33.5,1150.18315
51:33.5,1166.300366
51:33.5,1189.010989
51:33.5,1221.978022
51:33.5,1268.131868
51:33.5,1328.205128
51:33.5,1397.069597
51:33.5,1468.864469
51:33.5,1539.194139
51:33.5,1605.860806
51:33.5,1667.399267
51:33.5,1720.14652
51:33.5,1766.300366
51:33.6,1800.732601
51:33.6,1826.373626
51:33.6,1841.025641
51:33.6,1849.81685
51:33.6,1852.014652
51:33.6,1850.549451
51:33.6,1846.153846
51:33.6,1840.29304
51:33.6,1835.164835
51:33.6,1827.838828
51:33.6,1818.315018
51:33.6,1804.395604
51:33.6,1787.545788
51:33.7,1764.102564
51:33.7,1738.461538
51:33.7,1710.622711
51:33.7,1682.783883
51:33.7,1657.142857
51:33.7,1631.501832
51:33.7,1609.52381
51:33.7,1591.208791
51:33.7,1575.091575
51:33.7,1563.369963
51:33.7,1553.113553
51:33.7,1547.985348
51:33.8,1544.322344
51:33.8,1540.659341
51:33.8,1536.996337
51:33.8,1535.531136
51:33.8,1530.40293
51:33.8,1526.007326
51:33.8,1519.413919
51:33.8,1511.355311
51:33.8,1501.831502
51:33.8,1491.575092
51:33.8,1477.655678
51:33.8,1464.468864
51:33.8,1451.282051
51:33.9,1437.362637
51:33.9,1422.710623
51:33.9,1406.593407
51:33.9,1389.74359
51:33.9,1372.161172
51:33.9,1355.311355
51:33.9,1337.728938
51:33.9,1323.809524
51:33.9,1309.157509
51:33.9,1295.970696
51:33.9,1282.051282
51:33.9,1271.062271
51:33.9,1260.07326
51:34.0,1249.81685
51:34.0,1237.362637
51:34.0,1227.838828
51:34.0,1218.315018
51:34.0,1212.454212
51:34.0,1207.326007
51:34.0,1205.128205
51:34.0,1205.128205
51:34.0,1206.593407
51:34.0,1208.791209
51:34.0,1212.454212
51:34.0,1213.919414
51:34.0,1212.454212
51:34.1,1206.593407
51:34.1,1200
51:34.1,1191.208791
51:34.1,1182.417582
51:34.1,1174.358974
51:34.1,1170.695971
51:34.1,1167.032967
51:34.1,1164.102564
51:34.1,1161.172161
51:34.1,1161.904762
51:34.1,1162.637363
51:34.1,1163.369963
51:34.1,1163.369963
51:34.2,1165.567766
51:34.2,1167.765568
51:34.2,1169.230769
51:34.2,1170.695971
51:34.2,1171.428571
51:34.2,1172.893773
51:34.2,1172.161172
51:34.2,1172.161172
51:34.2,1172.893773
51:34.2,1175.091575
51:34.2,1176.556777
51:34.2,1175.091575
51:34.3,1173.626374
51:34.3,1173.626374
51:34.3,1171.428571
51:34.3,1167.765568
51:34.3,1164.102564
51:34.3,1158.974359
51:34.3,1151.648352
51:34.3,1147.252747
51:34.3,1142.857143
51:34.3,1140.659341
51:34.3,1137.728938
51:34.3,1139.194139
51:34.3,1139.194139
51:34.4,1139.194139
51:34.4,1136.263736
51:34.4,1134.798535
51:34.4,1131.135531
51:34.4,1131.868132
51:34.4,1131.135531
51:34.4,1131.135531
51:34.4,1131.135531
51:34.4,1132.600733
51:34.4,1132.600733
51:34.4,1131.135531
51:34.4,1129.67033
51:34.4,1130.40293
51:34.5,1129.67033
51:34.5,1130.40293
51:34.5,1132.600733
51:34.5,1139.194139
51:34.5,1150.915751
51:34.5,1170.695971
51:34.5,1202.930403
51:34.5,1243.956044
51:34.5,1295.970696
51:34.5,1354.578755
51:34.5,1418.315018
51:34.5,1484.981685
51:34.5,1549.450549
51:34.6,1608.791209
51:34.6,1662.271062
51:34.6,1706.959707
51:34.6,1742.857143
51:34.6,1769.230769
51:34.6,1789.74359
51:34.6,1804.395604
51:34.6,1814.652015
51:34.6,1816.117216
51:34.6,1812.454212
51:34.6,1802.930403
51:34.6,1789.74359
51:34.6,1770.695971
51:34.7,1747.985348
51:34.7,1722.344322
51:34.7,1696.703297
51:34.7,1666.666667
51:34.7,1632.234432
51:34.7,1597.802198
51:34.7,1563.369963
51:34.7,1534.798535
51:34.7,1507.692308
51:34.7,1488.644689
51:34.7,1473.260073
51:34.7,1463.003663
51:34.8,1456.410256
51:34.8,1454.945055
51:34.8,1456.410256
51:34.8,1458.608059
51:34.8,1463.003663
51:34.8,1467.399267
51:34.8,1471.794872
51:34.8,1473.992674
51:34.8,1473.992674
51:34.8,1471.794872
51:34.8,1466.666667
51:34.8,1458.608059
51:34.8,1451.282051
51:34.9,1441.758242
51:34.9,1430.03663
51:34.9,1417.582418
51:34.9,1405.128205
51:34.9,1393.406593
51:34.9,1379.487179
51:34.9,1368.498168
51:34.9,1358.974359
51:34.9,1350.18315
51:34.9,1339.92674
51:34.9,1329.67033
51:34.9,1321.611722
51:34.9,1311.355311
51:35.0,1302.564103
51:35.0,1292.307692
51:35.0,1281.318681
51:35.0,1272.527473
51:35.0,1263.003663
51:35.0,1256.410256
51:35.0,1245.421245
51:35.0,1233.699634
51:35.0,1220.512821
51:35.0,1208.058608
51:35.0,1197.802198
51:35.0,1189.74359
51:35.0,1185.347985
51:35.1,1186.813187
51:35.1,1188.278388
51:35.1,1191.208791
51:35.1,1193.406593
51:35.1,1197.069597
51:35.1,1200.732601
51:35.1,1205.128205
51:35.1,1206.593407
51:35.1,1210.989011
51:35.1,1214.652015
51:35.1,1217.582418
51:35.1,1216.117216
51:35.1,1215.384615
51:35.2,1212.454212
51:35.2,1208.791209
51:35.2,1204.395604
51:35.2,1202.197802
51:35.2,1200
51:35.2,1196.336996
51:35.2,1193.406593
51:35.2,1191.941392
51:35.2,1194.139194
51:35.2,1198.534799
51:35.2,1200.732601
51:35.2,1202.930403
51:35.3,1205.128205
51:35.3,1203.663004
51:35.3,1202.197802
51:35.3,1197.069597
51:35.3,1191.941392
51:35.3,1185.347985
51:35.3,1178.754579
51:35.3,1171.428571
51:35.3,1167.765568
51:35.3,1164.102564
51:35.3,1161.172161
51:35.3,1161.172161
51:35.3,1163.369963
51:35.4,1164.835165
51:35.4,1164.835165
51:35.4,1163.369963
51:35.4,1163.369963
51:35.4,1162.637363
51:35.4,1161.172161
51:35.4,1158.974359
51:35.4,1156.776557
51:35.4,1157.509158
51:35.4,1158.974359
51:35.4,1165.567766
51:35.4,1175.824176
51:35.4,1189.74359
51:35.5,1205.860806
51:35.5,1227.106227
51:35.5,1254.212454
51:35.5,1289.377289
51:35.5,1332.600733
51:35.5,1381.684982
51:35.5,1434.432234
51:35.5,1491.575092
51:35.5,1547.985348
51:35.5,1602.930403
51:35.5,1652.747253
51:35.5,1695.970696
51:35.5,1731.868132
51:35.6,1758.241758
51:35.6,1777.289377
51:35.6,1786.080586
51:35.6,1789.010989
51:35.6,1784.615385
51:35.6,1777.289377
51:35.6,1767.032967
51:35.6,1756.043956
51:35.6,1740.659341
51:35.6,1726.739927
51:35.6,1708.424908
51:35.6,1687.912088
51:35.6,1664.468864
51:35.7,1639.56044
51:35.7,1612.454212
51:35.7,1585.347985
51:35.7,1560.43956
51:35.7,1541.391941
51:35.7,1523.809524
51:35.7,1511.355311
51:35.7,1501.098901
51:35.7,1491.575092
51:35.7,1482.051282
51:35.7,1474.725275
51:35.7,1468.131868
51:35.8,1468.131868
51:35.8,1468.864469
51:35.8,1471.062271
51:35.8,1472.527473
51:35.8,1476.923077
51:35.8,1481.318681
51:35.8,1484.981685
51:35.8,1484.981685
51:35.8,1484.981685
51:35.8,1479.120879
51:35.8,1470.32967
51:35.8,1457.142857
51:35.8,1441.025641
51:35.9,1424.175824
51:35.9,1402.930403
51:35.9,1382.417582
51:35.9,1361.172161
51:35.9,1342.857143
51:35.9,1326.007326
51:35.9,1312.820513
51:35.9,1300.3663
51:35.9,1292.307692
51:35.9,1282.783883
51:35.9,1276.923077
51:35.9,1270.32967
51:35.9,1265.201465
51:36.0,1258.608059
51:36.0,1251.282051
51:36.0,1241.025641
51:36.0,1233.699634
51:36.0,1227.838828
51:36.0,1222.710623
51:36.0,1216.117216
51:36.0,1210.989011
51:36.0,1205.860806
51:36.0,1201.465201
51:36.0,1197.802198
51:36.0,1195.604396
51:36.0,1196.336996
51:36.1,1195.604396
51:36.1,1197.802198
51:36.1,1199.267399
51:36.1,1202.930403
51:36.1,1205.860806
51:36.1,1210.25641
51:36.1,1215.384615
51:36.1,1219.78022
51:36.1,1220.512821
51:36.1,1221.245421
51:36.1,1219.78022
51:36.1,1218.315018
51:36.1,1216.849817
51:36.2,1214.652015
51:36.2,1212.454212
51:36.2,1210.25641
51:36.2,1210.989011
51:36.2,1210.989011
51:36.2,1210.989011
51:36.2,1213.919414
51:36.2,1213.919414
51:36.2,1214.652015
51:36.2,1214.652015
51:36.2,1216.849817
51:36.2,1216.117216
51:36.3,1216.849817
51:36.3,1216.117216
51:36.3,1216.849817
51:36.3,1215.384615
51:36.3,1212.454212
51:36.3,1207.326007
51:36.3,1197.802198
51:36.3,1186.813187
51:36.3,1177.289377
51:36.3,1167.032967
51:36.3,1158.241758
51:36.3,1153.113553
51:36.3,1148.717949
51:36.4,1146.520147
51:36.4,1145.054945
51:36.4,1144.322344
51:36.4,1143.589744
51:36.4,1146.520147
51:36.4,1150.915751
51:36.4,1156.776557
51:36.4,1164.835165
51:36.4,1176.556777
51:36.4,1194.139194
51:36.4,1221.245421
51:36.4,1257.142857
51:36.4,1307.692308
51:36.5,1367.032967
51:36.5,1438.827839
51:36.5,1515.750916
51:36.5,1593.406593
51:36.5,1670.32967
51:36.5,1743.589744
51:36.5,1812.454212
51:36.5,1867.399267
51:36.5,1910.622711
51:36.5,1942.124542
51:36.5,1961.904762
51:36.5,1969.96337
51:36.5,1972.893773
51:36.6,1969.230769
51:36.6,1965.567766
51:36.6,1957.509158
51:36.6,1951.648352
51:36.6,1941.391941
51:36.6,1931.135531
51:36.6,1920.14652
51:36.6,1906.959707
51:36.6,1891.575092
51:36.6,1869.59707
51:36.6,1846.886447
51:36.6,1822.710623
51:36.6,1797.069597
51:36.7,1774.358974
51:36.7,1756.043956
51:36.7,1741.391941
51:36.7,1728.205128
51:36.7,1716.483516
51:36.7,1704.761905
51:36.7,1697.435897
51:36.7,1690.10989
51:36.7,1687.912088
51:36.7,1684.981685
51:36.7,1682.783883
51:36.7,1679.120879
51:36.8,1675.457875
51:36.8,1670.32967
51:36.8,1663.003663
51:36.8,1650.549451
51:36.8,1637.362637
51:36.8,1619.78022
51:36.8,1603.663004
51:36.8,1584.615385
51:36.8,1565.567766
51:36.8,1545.054945
51:36.8,1525.274725
51:36.8,1506.227106
51:36.8,1488.644689
51:36.9,1472.527473
51:36.9,1454.945055
51:36.9,1441.025641
51:36.9,1427.106227
51:36.9,1411.721612
51:36.9,1397.069597
51:36.9,1381.684982
51:36.9,1370.695971
51:36.9,1357.509158
51:36.9,1345.054945
51:36.9,1333.333333
51:36.9,1322.344322
51:36.9,1312.820513
51:37.0,1303.296703
51:37.0,1293.040293
51:37.0,1287.179487
51:37.0,1282.051282
51:37.0,1279.120879
51:37.0,1278.388278
51:37.0,1276.923077
51:37.0,1277.655678
51:37.0,1273.992674
51:37.0,1268.864469
51:37.0,1262.271062
51:37.0,1255.677656
51:37.0,1248.351648
51:37.1,1243.223443
51:37.1,1238.827839
51:37.1,1235.897436
51:37.1,1235.164835
51:37.1,1232.967033
51:37.1,1232.234432
51:37.1,1231.501832
51:37.1,1232.967033
51:37.1,1234.432234
51:37.1,1235.897436
51:37.1,1233.699634
51:37.1,1232.234432
51:37.1,1228.571429
51:37.2,1225.641026
51:37.2,1220.512821
51:37.2,1219.78022
51:37.2,1218.315018
51:37.2,1219.047619
51:37.2,1219.047619
51:37.2,1221.978022
51:37.2,1222.710623
51:37.2,1222.710623
51:37.2,1219.78022
51:37.2,1216.849817
51:37.2,1209.52381
51:37.3,1202.197802
51:37.3,1195.604396
51:37.3,1193.406593
51:37.3,1190.47619
51:37.3,1186.080586
51:37.3,1183.882784
51:37.3,1183.150183
51:37.3,1180.952381
51:37.3,1178.021978
51:37.3,1171.428571
51:37.3,1162.637363
51:37.3,1155.311355
51:37.3,1148.717949
51:37.4,1145.054945
51:37.4,1142.857143
51:37.4,1142.124542
51:37.4,1144.322344
51:37.4,1149.450549
51:37.4,1157.509158
51:37.4,1171.428571
51:37.4,1189.74359
51:37.4,1216.117216
51:37.4,1252.747253
51:37.4,1298.901099
51:37.4,1357.509158
51:37.4,1425.641026
51:37.5,1500.3663
51:37.5,1580.952381
51:37.5,1660.07326
51:37.5,1737.728938
51:37.5,1808.791209
51:37.5,1874.725275
51:37.5,1930.40293
51:37.5,1972.893773
51:37.5,2005.860806
51:37.5,2027.838828
51:37.5,2043.223443
51:37.5,2048.351648
51:37.5,2049.81685
51:37.6,2044.688645
51:37.6,2037.362637
51:37.6,2025.641026
51:37.6,2010.25641
51:37.6,1991.208791
51:37.6,1972.161172
51:37.6,1949.450549
51:37.6,1927.472527
51:37.6,1900.3663
51:37.6,1871.062271
51:37.6,1839.56044
51:37.6,1806.593407
51:37.6,1774.358974
51:37.7,1745.054945
51:37.7,1722.344322
51:37.7,1704.761905
51:37.7,1693.772894
51:37.7,1685.714286
51:37.7,1685.714286
51:37.7,1687.912088
51:37.7,1690.10989
51:37.7,1690.842491
51:37.7,1693.040293
51:37.7,1698.168498
51:37.7,1701.831502
51:37.8,1702.564103
51:37.8,1700.3663
51:37.8,1696.703297
51:37.8,1688.644689
51:37.8,1676.923077
51:37.8,1659.340659
51:37.8,1635.164835
51:37.8,1604.395604
51:37.8,1570.695971
51:37.8,1534.798535
51:37.8,1500.3663
51:37.8,1469.59707
51:37.8,1441.025641
51:37.9,1417.582418
51:37.9,1397.069597
51:37.9,1378.754579
51:37.9,1364.835165
51:37.9,1352.380952
51:37.9,1343.589744
51:37.9,1335.531136
51:37.9,1328.937729
51:37.9,1320.879121
51:37.9,1312.820513
51:37.9,1303.296703
51:37.9,1294.505495
51:37.9,1287.912088
51:38.0,1281.318681
51:38.0,1276.923077
51:38.0,1273.260073
51:38.0,1271.062271
51:38.0,1271.794872
51:38.0,1272.527473
51:38.0,1273.992674
51:38.0,1272.527473
51:38.0,1274.725275
51:38.0,1273.992674
51:38.0,1273.992674
51:38.0,1271.062271
51:38.0,1269.59707
51:38.1,1267.399267
51:38.1,1265.934066
51:38.1,1265.201465
51:38.1,1265.934066
51:38.1,1264.468864
51:38.1,1262.271062
51:38.1,1257.142857
51:38.1,1252.014652
51:38.1,1243.956044
51:38.1,1235.164835
51:38.1,1227.838828
51:38.1,1223.443223
51:38.1,1218.315018
51:38.2,1213.186813
51:38.2,1208.058608
51:38.2,1203.663004
51:38.2,1200
51:38.2,1198.534799
51:38.2,1196.336996
51:38.2,1193.406593
51:38.2,1191.208791
51:38.2,1188.278388
51:38.2,1184.615385
51:38.2,1183.150183
51:38.2,1183.882784
51:38.3,1187.545788
51:38.3,1191.941392
51:38.3,1196.336996
51:38.3,1198.534799
51:38.3,1202.197802
51:38.3,1201.465201
51:38.3,1199.267399
51:38.3,1196.336996
51:38.3,1193.406593
51:38.3,1190.47619
51:38.3,1187.545788
51:38.3,1186.813187
51:38.3,1187.545788
51:38.4,1191.941392
51:38.4,1200
51:38.4,1215.384615
51:38.4,1241.025641
51:38.4,1279.85348
51:38.4,1331.868132
51:38.4,1396.336996
51:38.4,1469.59707
51:38.4,1550.915751
51:38.4,1632.967033
51:38.4,1713.553114
51:38.4,1788.278388
51:38.4,1855.677656
51:38.5,1912.087912
51:38.5,1956.043956
51:38.5,1989.010989
51:38.5,2010.989011
51:38.5,2020.512821
51:38.5,2019.78022
51:38.5,2012.454212
51:38.5,1998.534799
51:38.5,1979.487179
51:38.5,1954.578755
51:38.5,1926.739927
51:38.5,1896.703297
51:38.5,1866.666667
51:38.6,1832.967033
51:38.6,1797.069597
51:38.6,1761.172161
51:38.6,1726.007326
51:38.6,1693.040293
51:38.6,1663.003663
51:38.6,1641.025641
51:38.6,1622.710623
51:38.6,1610.25641
51:38.6,1603.663004
51:38.6,1601.465201
51:38.6,1605.128205
51:38.6,1608.791209
51:38.7,1614.652015
51:38.7,1619.047619
51:38.7,1626.373626
51:38.7,1633.699634
51:38.7,1639.56044
51:38.7,1643.956044
51:38.7,1645.421245
51:38.7,1643.223443
51:38.7,1634.432234
51:38.7,1621.978022
51:38.7,1604.395604
51:38.7,1585.347985
51:38.8,1563.369963
51:38.8,1540.659341
51:38.8,1516.483516
51:38.8,1493.772894
51:38.8,1471.062271
51:38.8,1448.351648
51:38.8,1426.373626
51:38.8,1407.326007
51:38.8,1387.545788
51:38.8,1369.230769
51:38.8,1353.113553
51:38.8,1338.461538
51:38.8,1326.007326
51:38.9,1312.820513
51:38.9,1301.098901
51:38.9,1290.10989
51:38.9,1283.516484
51:38.9,1275.457875
51:38.9,1271.062271
51:38.9,1263.736264
51:38.9,1260.07326
51:38.9,1254.212454
51:38.9,1249.81685
51:38.9,1246.153846
51:38.9,1244.688645
51:38.9,1243.956044
51:39.0,1243.223443
51:39.0,1243.956044
51:39.0,1246.886447
51:39.0,1249.81685
51:39.0,1252.747253
51:39.0,1254.212454
51:39.0,1254.945055
51:39.0,1253.479853
51:39.0,1249.81685
51:39.0,1245.421245
51:39.0,1241.025641
51:39.0,1235.897436
51:39.0,1231.501832
51:39.1,1227.106227
51:39.1,1220.512821
51:39.1,1214.652015
51:39.1,1208.058608
51:39.1,1202.197802
51:39.1,1195.604396
51:39.1,1192.673993
51:39.1,1189.010989
51:39.1,1186.080586
51:39.1,1182.417582
51:39.1,1180.952381
51:39.1,1179.487179
51:39.1,1178.754579
51:39.2,1178.021978
51:39.2,1178.021978
51:39.2,1176.556777
51:39.2,1173.626374
51:39.2,1170.695971
51:39.2,1172.893773
51:39.2,1175.091575
51:39.2,1176.556777
51:39.2,1174.358974
51:39.2,1172.161172
51:39.2,1168.498168
51:39.2,1168.498168
51:39.3,1169.96337
51:39.3,1175.824176
51:39.3,1180.952381
51:39.3,1184.615385
51:39.3,1189.74359
51:39.3,1198.534799
51:39.3,1211.721612
51:39.3,1234.432234
51:39.3,1270.32967
51:39.3,1319.413919
51:39.3,1382.417582
51:39.3,1454.945055
51:39.3,1538.461538
51:39.4,1626.373626
51:39.4,1720.14652
51:39.4,1810.25641
51:39.4,1895.238095
51:39.4,1972.161172
51:39.4,2038.827839
51:39.4,2093.772894
51:39.4,2134.798535
51:39.4,2165.567766
51:39.4,2182.417582
51:39.4,2191.941392
51:39.4,2190.47619
51:39.4,2183.882784
51:39.5,2172.893773
51:39.5,2160.43956
51:39.5,2143.589744
51:39.5,2123.809524
51:39.5,2100.3663
51:39.5,2073.992674
51:39.5,2043.956044
51:39.5,2011.721612
51:39.5,1975.824176
51:39.5,1937.728938
51:39.5,1899.6337
51:39.5,1862.271062
51:39.5,1828.571429
51:39.6,1800.732601
51:39.6,1780.952381
51:39.6,1764.835165
51:39.6,1756.043956
51:39.6,1750.915751
51:39.6,1749.450549
51:39.6,1752.380952
51:39.6,1756.043956
51:39.6,1760.43956
51:39.6,1761.172161
51:39.6,1758.974359
51:39.6,1750.915751
51:39.6,1742.857143
51:39.7,1732.600733
51:39.7,1719.413919
51:39.7,1703.296703
51:39.7,1685.714286
51:39.7,1665.201465
51:39.7,1641.758242
51:39.7,1617.582418
51:39.7,1591.941392
51:39.7,1566.300366
51:39.7,1538.461538
51:39.7,1511.355311
51:39.7,1484.249084
51:39.8,1461.538462
51:39.8,1438.095238
51:39.8,1419.78022
51:39.8,1402.197802
51:39.8,1386.813187
51:39.8,1372.161172
51:39.8,1359.70696
51:39.8,1346.520147
51:39.8,1334.798535
51:39.8,1320.14652
51:39.8,1305.494505
51:39.8,1291.575092
51:39.8,1281.318681
51:39.9,1271.062271
51:39.9,1262.271062
51:39.9,1254.212454
51:39.9,1249.81685
51:39.9,1246.886447
51:39.9,1246.153846
51:39.9,1246.153846
51:39.9,1248.351648
51:39.9,1252.747253
51:39.9,1258.608059
51:39.9,1261.538462
51:39.9,1265.201465
51:39.9,1268.864469
51:40.0,1268.864469
51:40.0,1268.131868
51:40.0,1264.468864
51:40.0,1262.271062
51:40.0,1258.608059
51:40.0,1254.945055
51:40.0,1249.81685
51:40.0,1243.956044
51:40.0,1237.362637
51:40.0,1226.373626
51:40.0,1214.652015
51:40.0,1204.395604
51:40.0,1194.139194
51:40.1,1184.615385
51:40.1,1177.289377
51:40.1,1172.161172
51:40.1,1167.032967
51:40.1,1164.102564
51:40.1,1161.172161
51:40.1,1159.70696
51:40.1,1156.776557
51:40.1,1155.311355
51:40.1,1153.113553
51:40.1,1151.648352
51:40.1,1150.18315
51:40.2,1150.18315
51:40.2,1149.450549
51:40.2,1152.380952
51:40.2,1153.846154
51:40.2,1151.648352
51:40.2,1147.985348
51:40.2,1142.857143
51:40.2,1139.194139
51:40.2,1136.263736
51:40.2,1134.065934
51:40.2,1133.333333
51:40.2,1130.40293
51:40.2,1128.937729
51:40.3,1130.40293
51:40.3,1136.996337
51:40.3,1153.846154
51:40.3,1179.487179
51:40.3,1219.047619
51:40.3,1273.992674
51:40.3,1343.589744
51:40.3,1425.641026
51:40.3,1518.681319
51:40.3,1619.047619
51:40.3,1720.14652
51:40.3,1816.849817
51:40.3,1904.029304
51:40.4,1978.754579
51:40.4,2041.758242
51:40.4,2090.842491
51:40.4,2128.937729
51:40.4,2156.043956
51:40.4,2169.230769
51:40.4,2172.893773
51:40.4,2168.498168
51:40.4,2157.509158
51:40.4,2143.589744
51:40.4,2126.007326
51:40.4,2108.424908
51:40.4,2090.842491
51:40.5,2069.59707
51:40.5,2046.153846
51:40.5,2018.315018
51:40.5,1987.545788
51:40.5,1955.311355
51:40.5,1922.344322
51:40.5,1890.842491
51:40.5,1860.07326
51:40.5,1835.164835
51:40.5,1811.721612
51:40.5,1791.941392
51:40.5,1775.824176
51:40.5,1766.300366
51:40.6,1758.974359
51:40.6,1755.311355
51:40.6,1752.380952
51:40.6,1747.985348
51:40.6,1743.589744
51:40.6,1737.728938
51:40.6,1730.40293
51:40.6,1720.14652
51:40.6,1707.692308
51:40.6,1692.307692
51:40.6,1673.992674
51:40.6,1653.479853
51:40.6,1630.769231
51:40.7,1606.593407
51:40.7,1580.21978
51:40.7,1554.578755
51:40.7,1527.472527
51:40.7,1499.6337
51:40.7,1473.260073
51:40.7,1449.084249
51:40.7,1427.106227
51:40.7,1406.593407
51:40.7,1386.813187
51:40.7,1369.230769
51:40.7,1352.380952
51:40.8,1339.194139
51:40.8,1326.739927
51:40.8,1316.483516
51:40.8,1307.692308
51:40.8,1298.901099
51:40.8,1290.842491
51:40.8,1284.981685
51:40.8,1277.655678
51:40.8,1271.794872
51:40.8,1263.003663
51:40.8,1254.945055
51:40.8,1243.956044
51:40.8,1231.501832
51:40.9,1217.582418
51:40.9,1205.128205
51:40.9,1195.604396
51:40.9,1187.545788
51:40.9,1183.150183
51:40.9,1180.952381
51:40.9,1178.754579
51:40.9,1177.289377
51:40.9,1179.487179
51:40.9,1181.684982
51:40.9,1185.347985
51:40.9,1189.74359
51:40.9,1193.406593
51:41.0,1196.336996
51:41.0,1198.534799
51:41.0,1197.802198
51:41.0,1197.802198
51:41.0,1196.336996
51:41.0,1194.871795
51:41.0,1191.941392
51:41.0,1187.545788
51:41.0,1180.952381
51:41.0,1176.556777
51:41.0,1169.96337
51:41.0,1164.102564
51:41.0,1158.241758
51:41.1,1151.648352
51:41.1,1147.985348
51:41.1,1141.391941
51:41.1,1136.996337
51:41.1,1131.868132
51:41.1,1128.937729
51:41.1,1126.739927
51:41.1,1126.007326
51:41.1,1123.809524
51:41.1,1120.879121
51:41.1,1117.948718
51:41.1,1112.087912
51:41.1,1103.296703
51:41.2,1092.307692
51:41.2,1084.981685
51:41.2,1079.85348
51:41.2,1077.655678
51:41.2,1076.190476
51:41.2,1073.260073
51:41.2,1072.527473
51:41.2,1074.725275
51:41.2,1077.655678
51:41.2,1083.516484
51:41.2,1091.575092
51:41.2,1104.029304
51:41.3,1121.611722
51:41.3,1148.717949
51:41.3,1188.278388
51:41.3,1240.29304
51:41.3,1306.227106
51:41.3,1382.417582
51:41.3,1469.59707
51:41.3,1558.241758
51:41.3,1648.351648
51:41.3,1733.333333
51:41.3,1808.791209
51:41.3,1872.527473
51:41.3,1924.542125
51:41.4,1965.567766
51:41.4,1991.208791
51:41.4,2005.128205
51:41.4,2008.058608
51:41.4,2004.395604
51:41.4,1993.406593
51:41.4,1976.556777
51:41.4,1956.043956
51:41.4,1931.868132
51:41.4,1906.227106
51:41.4,1876.190476
51:41.4,1841.758242
51:41.4,1805.860806
51:41.5,1767.765568
51:41.5,1730.40293
51:41.5,1693.772894
51:41.5,1657.142857
51:41.5,1624.908425
51:41.5,1598.534799
51:41.5,1580.21978
51:41.5,1567.765568
51:41.5,1560.43956
51:41.5,1557.509158
51:41.5,1560.43956
51:41.5,1565.567766
51:41.5,1574.358974
51:41.6,1583.150183
51:41.6,1591.208791
51:41.6,1597.069597
51:41.6,1602.197802
51:41.6,1606.593407
51:41.6,1607.326007
51:41.6,1602.930403
51:41.6,1595.604396
51:41.6,1582.417582
51:41.6,1565.567766
51:41.6,1547.252747
51:41.6,1526.007326
51:41.6,1504.761905
51:41.7,1479.85348
51:41.7,1454.945055
51:41.7,1430.03663
51:41.7,1404.395604
51:41.7,1378.754579
51:41.7,1356.043956
51:41.7,1334.065934
51:41.7,1312.820513
51:41.7,1293.772894
51:41.7,1276.923077
51:41.7,1261.538462
51:41.7,1246.153846
51:41.8,1236.630037
51:41.8,1230.03663
51:41.8,1227.106227
51:41.8,1224.908425
51:41.8,1224.175824
51:41.8,1224.175824
51:41.8,1222.710623
51:41.8,1219.78022
51:41.8,1213.186813
51:41.8,1204.395604
51:41.8,1195.604396
51:41.8,1186.080586
51:41.8,1177.289377
51:41.9,1169.96337
51:41.9,1164.102564
51:41.9,1159.70696
51:41.9,1156.776557
51:41.9,1156.043956
51:41.9,1157.509158
51:41.9,1159.70696
51:41.9,1161.904762
51:41.9,1161.172161
51:41.9,1159.70696
51:41.9,1156.043956
51:41.9,1151.648352
51:41.9,1148.717949
51:42.0,1148.717949
51:42.0,1152.380952
51:42.0,1157.509158
51:42.0,1161.904762
51:42.0,1166.300366
51:42.0,1166.300366
51:42.0,1165.567766
51:42.0,1161.904762
51:42.0,1158.974359
51:42.0,1153.846154
51:42.0,1145.054945
51:42.0,1133.333333
51:42.0,1123.076923
51:42.1,1114.285714
51:42.1,1106.227106
51:42.1,1099.6337
51:42.1,1093.772894
51:42.1,1087.912088
51:42.1,1082.051282
51:42.1,1078.388278
51:42.1,1074.725275
51:42.1,1071.794872
51:42.1,1068.131868
51:42.1,1065.934066
51:42.1,1065.201465
51:42.1,1068.131868
51:42.2,1073.260073
51:42.2,1079.120879
51:42.2,1090.10989
51:42.2,1104.761905
51:42.2,1126.739927
51:42.2,1157.509158
51:42.2,1199.267399
51:42.2,1252.014652
51:42.2,1315.750916
51:42.2,1391.208791
51:42.2,1471.794872
51:42.2,1555.311355
51:42.3,1640.29304
51:42.3,1720.879121
51:42.3,1797.069597
51:42.3,1860.07326
51:42.3,1912.087912
51:42.3,1950.18315
51:42.3,1978.021978
51:42.3,1994.871795
51:42.3,2001.465201
51:42.3,1999.267399
51:42.3,1988.278388
51:42.3,1969.96337
51:42.3,1950.18315
51:42.4,1925.274725
51:42.4,1900.3663
51:42.4,1872.527473
51:42.4,1843.223443
51:42.4,1813.186813
51:42.4,1780.952381
51:42.4,1745.054945
51:42.4,1707.692308
51:42.4,1668.864469
51:42.4,1634.432234
51:42.4,1602.197802
51:42.4,1574.358974
51:42.4,1553.113553
51:42.5,1537.728938
51:42.5,1529.67033
51:42.5,1524.542125
51:42.5,1524.542125
51:42.5,1526.007326
51:42.5,1530.40293
51:42.5,1534.065934
51:42.5,1536.996337
51:42.5,1539.194139
51:42.5,1537.728938
51:42.5,1536.996337
51:42.5,1531.135531
51:42.5,1523.809524
51:42.6,1511.355311
51:42.6,1496.703297
51:42.6,1478.388278
51:42.6,1456.410256
51:42.6,1435.164835
51:42.6,1414.652015
51:42.6,1398.534799
51:42.6,1383.150183
51:42.6,1369.96337
51:42.6,1356.043956
51:42.6,1343.589744
51:42.6,1328.937729
51:42.6,1313.553114
51:42.7,1298.901099
51:42.7,1284.981685
51:42.7,1273.992674
51:42.7,1263.003663
51:42.7,1254.945055
51:42.7,1245.421245
51:42.7,1239.56044
51:42.7,1232.967033
51:42.7,1225.641026
51:42.7,1216.849817
51:42.7,1206.593407
51:42.7,1197.802198
51:42.8,1189.74359
51:42.8,1183.882784
51:42.8,1179.487179
51:42.8,1174.358974
51:42.8,1172.161172
51:42.8,1169.230769
51:42.8,1168.498168
51:42.8,1165.567766
51:42.8,1164.835165
51:42.8,1162.637363
51:42.8,1161.172161
51:42.8,1160.43956
51:42.8,1158.974359
51:42.9,1158.241758
51:42.9,1156.776557
51:42.9,1153.846154
51:42.9,1150.915751
51:42.9,1149.450549
51:42.9,1147.252747
51:42.9,1146.520147
51:42.9,1145.054945
51:42.9,1145.054945
51:42.9,1142.857143
51:42.9,1134.065934
51:42.9,1126.007326
51:42.9,1115.750916
51:43.0,1107.692308
51:43.0,1099.6337
51:43.0,1094.505495
51:43.0,1094.505495
51:43.0,1094.505495
51:43.0,1098.901099
51:43.0,1101.831502
51:43.0,1106.227106
51:43.0,1112.087912
51:43.0,1115.018315
51:43.0,1114.285714
51:43.0,1109.89011
51:43.0,1105.494505
51:43.1,1098.901099
51:43.1,1093.040293
51:43.1,1087.179487
51:43.1,1083.516484
51:43.1,1082.783883
51:43.1,1085.714286
51:43.1,1091.575092
51:43.1,1095.970696
51:43.1,1098.901099
51:43.1,1099.6337
51:43.1,1100.3663
51:43.1,1101.098901
51:43.1,1101.098901
51:43.2,1102.564103
51:43.2,1105.494505
51:43.2,1112.087912
51:43.2,1124.542125
51:43.2,1142.124542
51:43.2,1166.300366
51:43.2,1197.802198
51:43.2,1238.095238
51:43.2,1288.644689
51:43.2,1350.915751
51:43.2,1419.78022
51:43.2,1494.505495
51:43.3,1569.96337
51:43.3,1638.827839
51:43.3,1703.296703
51:43.3,1758.241758
51:43.3,1803.663004
51:43.3,1837.362637
51:43.3,1860.805861
51:43.3,1876.923077
51:43.3,1887.179487
51:43.3,1890.842491
51:43.3,1889.377289
51:43.3,1882.051282
51:43.3,1872.527473
51:43.4,1861.538462
51:43.4,1848.351648
51:43.4,1832.234432
51:43.4,1815.384615
51:43.4,1794.871795
51:43.4,1771.428571
51:43.4,1743.589744
51:43.4,1714.285714
51:43.4,1682.783883
51:43.4,1652.747253
51:43.4,1626.373626
51:43.4,1603.663004
51:43.4,1586.080586
51:43.5,1573.626374
51:43.5,1565.567766
51:43.5,1561.172161
51:43.5,1558.974359
51:43.5,1558.974359
51:43.5,1558.974359
51:43.5,1563.369963
51:43.5,1566.300366
51:43.5,1567.032967
51:43.5,1563.369963
51:43.5,1558.974359
51:43.5,1550.18315
51:43.5,1538.461538
51:43.6,1524.542125
51:43.6,1507.692308
51:43.6,1489.377289
51:43.6,1471.794872
51:43.6,1450.549451
51:43.6,1428.571429
51:43.6,1404.395604
51:43.6,1380.952381
51:43.6,1358.241758
51:43.6,1338.461538
51:43.6,1322.344322
51:43.6,1306.959707
51:43.6,1293.772894
51:43.7,1281.318681
51:43.7,1271.794872
51:43.7,1263.003663
51:43.7,1255.677656
51:43.7,1250.549451
51:43.7,1243.956044
51:43.7,1237.362637
51:43.7,1227.106227
51:43.7,1216.849817
51:43.7,1205.128205
51:43.7,1194.871795
51:43.7,1185.347985
51:43.8,1178.021978
51:43.8,1173.626374
51:43.8,1170.695971
51:43.8,1171.428571
51:43.8,1175.091575
51:43.8,1180.952381
51:43.8,1186.813187
51:43.8,1191.941392
51:43.8,1196.336996
51:43.8,1200.732601
51:43.8,1205.860806
51:43.8,1209.52381
51:43.8,1211.721612
51:43.9,1210.989011
51:43.9,1207.326007
51:43.9,1200
51:43.9,1191.941392
51:43.9,1186.080586
51:43.9,1179.487179
51:43.9,1175.091575
51:43.9,1169.230769
51:43.9,1161.172161
51:43.9,1153.113553
51:43.9,1142.124542
51:43.9,1131.135531
51:43.9,1120.14652
51:44.0,1111.355311
51:44.0,1101.831502
51:44.0,1096.703297
51:44.0,1093.772894
51:44.0,1091.575092
51:44.0,1091.575092
51:44.0,1091.575092
51:44.0,1093.040293
51:44.0,1095.238095
51:44.0,1095.970696
51:44.0,1095.970696
51:44.0,1094.505495
51:44.0,1093.040293
51:44.1,1090.842491
51:44.1,1089.377289
51:44.1,1088.644689
51:44.1,1089.377289
51:44.1,1087.912088
51:44.1,1088.644689
51:44.1,1090.10989
51:44.1,1091.575092
51:44.1,1092.307692
51:44.1,1091.575092
51:44.1,1091.575092
51:44.1,1091.575092
51:44.1,1094.505495
51:44.2,1096.703297
51:44.2,1099.6337
51:44.2,1104.029304
51:44.2,1107.692308
51:44.2,1112.820513
51:44.2,1112.820513
51:44.2,1113.553114
51:44.2,1112.087912
51:44.2,1111.355311
51:44.2,1112.087912
51:44.2,1114.285714
51:44.2,1123.076923
51:44.3,1139.194139
51:44.3,1161.172161
51:44.3,1191.941392
51:44.3,1233.699634
51:44.3,1284.249084
51:44.3,1344.322344
51:44.3,1407.326007
51:44.3,1472.527473
51:44.3,1534.798535
51:44.3,1587.545788
51:44.3,1632.234432
51:44.3,1666.666667
51:44.3,1690.10989
51:44.4,1708.424908
51:44.4,1720.14652
51:44.4,1723.809524
51:44.4,1725.274725
51:44.4,1721.611722
51:44.4,1718.681319
51:44.4,1715.018315
51:44.4,1709.157509
51:44.4,1701.098901
51:44.4,1695.238095
51:44.4,1687.179487
51:44.4,1678.388278
51:44.4,1667.399267
51:44.5,1652.747253
51:44.5,1634.432234
51:44.5,1613.919414
51:44.5,1589.74359
51:44.5,1567.032967
51:44.5,1543.589744
51:44.5,1523.076923
51:44.5,1507.692308
51:44.5,1494.505495
51:44.5,1487.912088
51:44.5,1488.644689
51:44.5,1492.307692
51:44.5,1497.435897
51:44.6,1499.6337
51:44.6,1499.6337
51:44.6,1500.3663
51:44.6,1496.703297
51:44.6,1492.307692
51:44.6,1485.714286
51:44.6,1473.992674
51:44.6,1458.608059
51:44.6,1439.56044
51:44.6,1419.78022
51:44.6,1396.336996
51:44.6,1374.358974
51:44.6,1354.578755
51:44.7,1333.333333
51:44.7,1315.750916
51:44.7,1298.168498
51:44.7,1283.516484
51:44.7,1268.131868
51:44.7,1254.212454
51:44.7,1241.025641
51:44.7,1230.03663
51:44.7,1219.047619
51:44.7,1210.25641
51:44.7,1201.465201
51:44.7,1193.406593
51:44.8,1189.010989
51:44.8,1185.347985
51:44.8,1182.417582
51:44.8,1179.487179
51:44.8,1178.021978
51:44.8,1177.289377
51:44.8,1180.21978
51:44.8,1185.347985
51:44.8,1189.010989
51:44.8,1191.208791
51:44.8,1189.74359
51:44.8,1186.080586
51:44.8,1180.21978
51:44.9,1174.358974
51:44.9,1169.96337
51:44.9,1167.032967
51:44.9,1167.765568
51:44.9,1169.96337
51:44.9,1169.96337
51:44.9,1169.96337
51:44.9,1169.96337
51:44.9,1169.96337
51:44.9,1167.032967
51:44.9,1161.904762
51:44.9,1157.509158
51:44.9,1153.113553
51:45.0,1150.18315
51:45.0,1145.054945
51:45.0,1141.391941
51:45.0,1139.194139
51:45.0,1136.263736
51:45.0,1134.798535
51:45.0,1131.135531
51:45.0,1130.40293
51:45.0,1129.67033
51:45.0,1128.937729
51:45.0,1128.937729
51:45.0,1128.205128
51:45.0,1128.205128
51:45.1,1128.205128
51:45.1,1127.472527
51:45.1,1127.472527
51:45.1,1128.937729
51:45.1,1134.798535
51:45.1,1143.589744
51:45.1,1153.846154
51:45.1,1161.904762
51:45.1,1168.498168
51:45.1,1169.96337
51:45.1,1171.428571
51:45.1,1171.428571
51:45.1,1170.695971
51:45.2,1166.300366
51:45.2,1161.904762
51:45.2,1158.241758
51:45.2,1154.578755
51:45.2,1150.18315
51:45.2,1147.252747
51:45.2,1146.520147
51:45.2,1147.985348
51:45.2,1148.717949
51:45.2,1147.985348
51:45.2,1146.520147
51:45.2,1145.787546
51:45.3,1143.589744
51:45.3,1145.054945
51:45.3,1145.787546
51:45.3,1151.648352
51:45.3,1157.509158
51:45.3,1165.567766
51:45.3,1177.289377
51:45.3,1194.871795
51:45.3,1220.512821
51:45.3,1253.479853
51:45.3,1292.307692
51:45.3,1336.263736
51:45.3,1384.615385
51:45.4,1432.967033
51:45.4,1480.586081
51:45.4,1526.007326
51:45.4,1562.637363
51:45.4,1594.139194
51:45.4,1616.117216
51:45.4,1632.967033
51:45.4,1641.025641
51:45.4,1643.956044
51:45.4,1642.490842
51:45.4,1636.630037
51:45.4,1626.373626
51:45.4,1611.721612
51:45.5,1592.673993
51:45.5,1575.091575
51:45.5,1555.311355
51:45.5,1536.996337
51:45.5,1518.681319
51:45.5,1501.098901
51:45.5,1483.516484
51:45.5,1464.468864
51:45.5,1446.153846
51:45.5,1430.03663
51:45.5,1415.384615
51:45.5,1407.326007
51:45.5,1402.197802
51:45.6,1400.732601
51:45.6,1401.465201
51:45.6,1403.663004
51:45.6,1405.860806
51:45.6,1405.860806
51:45.6,1402.197802
51:45.6,1394.871795
51:45.6,1386.813187
51:45.6,1378.754579
51:45.6,1372.161172
51:45.6,1368.498168
51:45.6,1363.369963
51:45.6,1360.43956
51:45.7,1354.578755
51:45.7,1348.717949
51:45.7,1341.391941
51:45.7,1332.600733
51:45.7,1323.076923
51:45.7,1311.355311
51:45.7,1302.564103
51:45.7,1290.842491
51:45.7,1279.120879
51:45.7,1269.59707
51:45.7,1258.608059
51:45.7,1251.282051
51:45.8,1243.956044
51:45.8,1238.095238
51:45.8,1234.432234
51:45.8,1229.304029
51:45.8,1224.908425
51:45.8,1220.512821
51:45.8,1216.117216
51:45.8,1212.454212
51:45.8,1207.326007
51:45.8,1203.663004
51:45.8,1200
51:45.8,1197.802198
51:45.8,1194.871795
51:45.9,1193.406593
51:45.9,1192.673993
51:45.9,1192.673993
51:45.9,1191.941392
51:45.9,1189.010989
51:45.9,1186.813187
51:45.9,1183.150183
51:45.9,1178.754579
51:45.9,1175.091575
51:45.9,1174.358974
51:45.9,1172.161172
51:45.9,1169.230769
51:45.9,1167.765568
51:46.0,1164.835165
51:46.0,1164.835165
51:46.0,1164.835165
51:46.0,1164.835165
51:46.0,1165.567766
51:46.0,1169.230769
51:46.0,1175.091575
51:46.0,1179.487179
51:46.0,1182.417582
51:46.0,1184.615385
51:46.0,1185.347985
51:46.0,1186.813187
51:46.0,1186.813187
51:46.1,1188.278388
51:46.1,1186.813187
51:46.1,1189.74359
51:46.1,1193.406593
51:46.1,1197.069597
51:46.1,1199.267399
51:46.1,1199.267399
51:46.1,1199.267399
51:46.1,1197.802198
51:46.1,1193.406593
51:46.1,1187.545788
51:46.1,1180.952381
51:46.1,1175.824176
51:46.2,1173.626374
51:46.2,1173.626374
51:46.2,1173.626374
51:46.2,1173.626374
51:46.2,1172.893773
51:46.2,1171.428571
51:46.2,1169.96337
51:46.2,1170.695971
51:46.2,1170.695971
51:46.2,1174.358974
51:46.2,1176.556777
51:46.2,1178.021978
51:46.3,1180.952381
51:46.3,1182.417582
51:46.3,1183.150183
51:46.3,1182.417582
51:46.3,1180.952381
51:46.3,1180.952381
51:46.3,1182.417582
51:46.3,1189.74359
51:46.3,1200.732601
51:46.3,1216.117216
51:46.3,1238.095238
51:46.3,1265.201465
51:46.3,1301.831502
51:46.4,1343.589744
51:46.4,1390.47619
51:46.4,1438.827839
51:46.4,1486.446886
51:46.4,1531.135531
51:46.4,1572.161172
51:46.4,1608.791209
51:46.4,1636.630037
51:46.4,1659.340659
51:46.4,1674.725275
51:46.4,1687.179487
51:46.4,1693.040293
51:46.4,1698.168498
51:46.5,1703.296703
51:46.5,1706.227106
51:46.5,1706.959707
51:46.5,1705.494505
51:46.5,1702.564103
51:46.5,1694.505495
51:46.5,1679.85348
51:46.5,1661.538462
51:46.5,1638.095238
51:46.5,1612.454212
51:46.5,1586.813187
51:46.5,1564.102564
51:46.5,1542.124542
51:46.6,1523.076923
51:46.6,1508.424908
51:46.6,1495.970696
51:46.6,1486.446886
51:46.6,1478.388278
51:46.6,1471.794872
51:46.6,1466.666667
51:46.6,1460.805861
51:46.6,1453.479853
51:46.6,1446.153846
51:46.6,1435.897436
51:46.6,1426.373626
51:46.6,1417.582418
51:46.7,1410.25641
51:46.7,1405.128205
51:46.7,1399.267399
51:46.7,1392.673993
51:46.7,1383.150183
51:46.7,1375.824176
51:46.7,1367.032967
51:46.7,1359.70696
51:46.7,1351.648352
51:46.7,1345.054945
51:46.7,1342.857143
51:46.7,1339.92674
51:46.8,1336.996337
51:46.8,1331.868132
51:46.8,1327.472527
51:46.8,1323.076923
51:46.8,1319.413919
51:46.8,1314.285714
51:46.8,1309.157509
51:46.8,1304.761905
51:46.8,1300.3663
51:46.8,1295.970696
51:46.8,1292.307692
51:46.8,1289.377289
51:46.8,1284.249084
51:46.9,1279.85348
51:46.9,1274.725275
51:46.9,1269.59707
51:46.9,1263.736264
51:46.9,1257.142857
51:46.9,1249.81685
51:46.9,1241.758242
51:46.9,1235.164835
51:46.9,1231.501832
51:46.9,1230.03663
51:46.9,1229.304029
51:46.9,1228.571429
51:46.9,1227.106227
51:47.0,1225.641026
51:47.0,1226.373626
51:47.0,1227.106227
51:47.0,1227.106227
51:47.0,1227.106227
51:47.0,1227.838828
51:47.0,1225.641026
51:47.0,1223.443223
51:47.0,1216.849817
51:47.0,1205.860806
51:47.0,1197.802198
51:47.0,1188.278388
51:47.0,1181.684982
51:47.1,1175.824176
51:47.1,1171.428571
51:47.1,1168.498168
51:47.1,1166.300366
51:47.1,1165.567766
51:47.1,1164.835165
51:47.1,1169.230769
51:47.1,1174.358974
51:47.1,1180.952381
51:47.1,1185.347985
51:47.1,1186.813187
51:47.1,1188.278388
51:47.1,1191.208791
51:47.2,1197.802198
51:47.2,1205.860806
51:47.2,1213.919414
51:47.2,1221.245421
51:47.2,1224.908425
51:47.2,1225.641026
51:47.2,1224.908425
51:47.2,1224.175824
51:47.2,1221.978022
51:47.2,1219.047619
51:47.2,1215.384615
51:47.2,1213.186813
51:47.3,1210.989011
51:47.3,1210.25641
51:47.3,1210.989011
51:47.3,1213.186813
51:47.3,1215.384615
51:47.3,1219.047619
51:47.3,1222.710623
51:47.3,1226.373626
51:47.3,1231.501832
51:47.3,1232.967033
51:47.3,1232.234432
51:47.3,1231.501832
51:47.3,1229.304029
51:47.4,1227.838828
51:47.4,1224.908425
51:47.4,1224.908425
51:47.4,1228.571429
51:47.4,1235.164835
51:47.4,1249.084249
51:47.4,1268.131868
51:47.4,1291.575092
51:47.4,1321.611722
51:47.4,1355.311355
51:47.4,1394.139194
51:47.4,1434.432234
51:47.4,1477.655678
51:47.5,1520.879121
51:47.5,1561.904762
51:47.5,1599.267399
51:47.5,1630.769231
51:47.5,1657.142857
51:47.5,1679.85348
51:47.5,1695.238095
51:47.5,1704.029304
51:47.5,1705.494505
51:47.5,1701.098901
51:47.5,1693.040293
51:47.5,1680.586081
51:47.5,1668.864469
51:47.6,1654.945055
51:47.6,1640.29304
51:47.6,1624.175824
51:47.6,1605.128205
51:47.6,1589.010989
51:47.6,1572.893773
51:47.6,1558.241758
51:47.6,1543.589744
51:47.6,1534.065934
51:47.6,1523.076923
51:47.6,1516.483516
51:47.6,1513.553114
51:47.6,1512.087912
51:47.7,1508.424908
51:47.7,1506.227106
51:47.7,1505.494505
51:47.7,1507.692308
51:47.7,1508.424908
51:47.7,1509.89011
51:47.7,1509.89011
51:47.7,1508.424908
51:47.7,1507.692308
51:47.7,1506.227106
51:47.7,1502.564103
51:47.7,1497.435897
51:47.8,1489.377289
51:47.8,1479.85348
51:47.8,1467.399267
51:47.8,1452.747253
51:47.8,1436.630037
51:47.8,1419.047619
51:47.8,1401.465201
51:47.8,1386.813187
51:47.8,1372.893773
51:47.8,1361.904762
51:47.8,1352.380952
51:47.8,1344.322344
51:47.8,1336.263736
51:47.9,1327.472527
51:47.9,1321.611722
51:47.9,1316.483516
51:47.9,1310.622711
51:47.9,1306.227106
51:47.9,1301.098901
51:47.9,1297.435897
51:47.9,1295.970696
51:47.9,1291.575092
51:47.9,1287.179487
51:47.9,1283.516484
51:47.9,1279.120879
51:47.9,1276.190476
51:48.0,1273.992674
51:48.0,1272.527473
51:48.0,1270.32967
51:48.0,1266.666667
51:48.0,1261.538462
51:48.0,1259.340659
51:48.0,1254.945055
51:48.0,1253.479853
51:48.0,1249.81685
51:48.0,1246.886447
51:48.0,1243.223443
51:48.0,1235.164835
51:48.0,1225.641026
51:48.1,1219.78022
51:48.1,1213.919414
51:48.1,1210.989011
51:48.1,1209.52381
51:48.1,1211.721612
51:48.1,1219.78022
51:48.1,1230.03663
51:48.1,1238.827839
51:48.1,1245.421245
51:48.1,1251.282051
51:48.1,1252.747253
51:48.1,1251.282051
51:48.1,1247.619048
51:48.2,1241.758242
51:48.2,1234.432234
51:48.2,1224.908425
51:48.2,1218.315018
51:48.2,1211.721612
51:48.2,1204.395604
51:48.2,1201.465201
51:48.2,1199.267399
51:48.2,1196.336996
51:48.2,1194.139194
51:48.2,1193.406593
51:48.2,1194.139194
51:48.3,1196.336996
51:48.3,1199.267399
51:48.3,1201.465201
51:48.3,1205.860806
51:48.3,1209.52381
51:48.3,1213.919414
51:48.3,1216.849817
51:48.3,1219.047619
51:48.3,1221.978022
51:48.3,1224.175824
51:48.3,1225.641026
51:48.3,1229.304029
51:48.3,1230.769231
51:48.4,1230.769231
51:48.4,1230.769231
51:48.4,1230.769231
51:48.4,1231.501832
51:48.4,1230.769231
51:48.4,1228.571429
51:48.4,1226.373626
51:48.4,1223.443223
51:48.4,1222.710623
51:48.4,1224.175824
51:48.4,1227.838828
51:48.4,1233.699634
51:48.4,1241.758242
51:48.5,1252.014652
51:48.5,1266.666667
51:48.5,1283.516484
51:48.5,1304.761905
51:48.5,1328.205128
51:48.5,1353.846154
51:48.5,1383.150183
51:48.5,1412.454212
51:48.5,1444.688645
51:48.5,1479.120879
51:48.5,1517.216117
51:48.5,1555.311355
51:48.5,1592.673993
51:48.6,1627.838828
51:48.6,1653.479853
51:48.6,1673.260073
51:48.6,1684.249084
51:48.6,1689.377289
51:48.6,1690.842491
51:48.6,1684.981685
51:48.6,1673.992674
51:48.6,1661.538462
51:48.6,1646.153846
51:48.6,1628.571429
51:48.6,1608.058608
51:48.6,1588.278388
51:48.7,1567.765568
51:48.7,1546.520147
51:48.7,1526.739927
51:48.7,1509.157509
51:48.7,1493.040293
51:48.7,1479.85348
51:48.7,1471.794872
51:48.7,1466.666667
51:48.7,1464.468864
51:48.7,1463.736264
51:48.7,1463.736264
51:48.7,1468.864469
51:48.8,1475.457875
51:48.8,1479.120879
51:48.8,1480.586081
51:48.8,1481.318681
51:48.8,1479.120879
51:48.8,1479.85348
51:48.8,1479.85348
51:48.8,1479.120879
51:48.8,1476.190476
51:48.8,1471.062271
51:48.8,1467.399267
51:48.8,1465.201465
51:48.8,1463.003663
51:48.9,1461.538462
51:48.9,1458.608059
51:48.9,1452.014652
51:48.9,1443.223443
51:48.9,1432.234432
51:48.9,1420.512821
51:48.9,1408.791209
51:48.9,1396.336996
51:48.9,1383.882784
51:48.9,1367.765568
51:48.9,1353.113553
51:48.9,1337.728938
51:48.9,1320.14652
51:49.0,1301.831502
51:49.0,1284.981685
51:49.0,1268.864469
51:49.0,1257.142857
51:49.0,1249.81685
51:49.0,1243.956044
51:49.0,1240.29304
51:49.0,1238.827839
51:49.0,1238.095238
51:49.0,1240.29304
51:49.0,1243.956044
51:49.0,1247.619048
51:49.0,1252.014652
51:49.1,1256.410256
51:49.1,1259.340659
51:49.1,1261.538462
51:49.1,1265.201465
51:49.1,1265.934066
51:49.1,1264.468864
51:49.1,1263.003663
51:49.1,1261.538462
51:49.1,1260.07326
51:49.1,1257.875458
51:49.1,1256.410256
51:49.1,1253.479853
51:49.1,1253.479853
51:49.2,1254.945055
51:49.2,1254.945055
51:49.2,1257.142857
51:49.2,1258.608059
51:49.2,1258.608059
51:49.2,1257.875458
51:49.2,1254.945055
51:49.2,1254.212454
51:49.2,1252.014652
51:49.2,1249.81685
51:49.2,1247.619048
51:49.2,1246.153846
51:49.3,1245.421245
51:49.3,1243.956044
51:49.3,1241.758242
51:49.3,1239.56044
51:49.3,1235.897436
51:49.3,1232.967033
51:49.3,1230.769231
51:49.3,1227.838828
51:49.3,1226.373626
51:49.3,1222.710623
51:49.3,1222.710623
51:49.3,1228.571429
51:49.3,1236.630037
51:49.4,1246.153846
51:49.4,1254.212454
51:49.4,1261.538462
51:49.4,1265.934066
51:49.4,1268.131868
51:49.4,1266.666667
51:49.4,1265.934066
51:49.4,1263.736264
51:49.4,1260.07326
51:49.4,1256.410256
51:49.4,1251.282051
51:49.4,1246.153846
51:49.4,1241.758242
51:49.5,1240.29304
51:49.5,1244.688645
51:49.5,1254.212454
51:49.5,1269.59707
51:49.5,1293.772894
51:49.5,1324.542125
51:49.5,1364.835165
51:49.5,1409.52381
51:49.5,1456.410256
51:49.5,1506.227106
51:49.5,1553.846154
51:49.5,1599.267399
51:49.5,1641.025641
51:49.6,1678.388278
51:49.6,1710.622711
51:49.6,1739.92674
51:49.6,1762.637363
51:49.6,1776.556777
51:49.6,1785.347985
51:49.6,1787.545788
51:49.6,1783.150183
51:49.6,1774.358974
51:49.6,1761.904762
51:49.6,1746.520147
51:49.6,1730.40293
51:49.7,1710.622711
51:49.7,1691.575092
51:49.7,1669.59707
51:49.7,1646.886447
51:49.7,1626.373626
51:49.7,1607.326007
51:49.7,1591.208791
51:49.7,1578.021978
51:49.7,1571.428571
51:49.7,1567.765568
51:49.7,1567.032967
51:49.7,1567.032967
51:49.7,1567.765568
51:49.8,1568.498168
51:49.8,1570.695971
51:49.8,1573.626374
51:49.8,1577.289377
51:49.8,1578.754579
51:49.8,1580.21978
51:49.8,1579.487179
51:49.8,1572.893773
51:49.8,1564.835165
51:49.8,1553.846154
51:49.8,1542.857143
51:49.8,1531.868132
51:49.8,1520.14652
51:49.9,1507.692308
51:49.9,1495.970696
51:49.9,1479.120879
51:49.9,1461.538462
51:49.9,1443.956044
51:49.9,1425.641026
51:49.9,1409.52381
51:49.9,1393.406593
51:49.9,1381.684982
51:49.9,1374.358974
51:49.9,1369.230769
51:49.9,1361.904762
51:49.9,1356.043956
51:50.0,1350.18315
51:50.0,1343.589744
51:50.0,1336.996337
51:50.0,1328.205128
51:50.0,1318.681319
51:50.0,1307.692308
51:50.0,1295.238095
51:50.0,1287.179487
51:50.0,1282.783883
51:50.0,1280.586081
51:50.0,1279.85348
51:50.0,1280.586081
51:50.0,1280.586081
51:50.1,1282.051282
51:50.1,1279.120879
51:50.1,1276.923077
51:50.1,1275.457875
51:50.1,1275.457875
51:50.1,1275.457875
51:50.1,1274.725275
51:50.1,1271.062271
51:50.1,1265.201465
51:50.1,1260.07326
51:50.1,1254.945055
51:50.1,1249.81685
51:50.1,1246.886447
51:50.2,1244.688645
51:50.2,1246.153846
51:50.2,1251.282051
51:50.2,1257.875458
51:50.2,1263.003663
51:50.2,1266.666667
51:50.2,1266.666667
51:50.2,1262.271062
51:50.2,1255.677656
51:50.2,1250.549451
51:50.2,1246.153846
51:50.2,1245.421245
51:50.3,1243.956044
51:50.3,1240.29304
51:50.3,1240.29304
51:50.3,1242.490842
51:50.3,1243.223443
51:50.3,1242.490842
51:50.3,1240.29304
51:50.3,1236.630037
51:50.3,1234.432234
51:50.3,1233.699634
51:50.3,1235.164835
51:50.3,1239.56044
51:50.3,1242.490842
51:50.4,1245.421245
51:50.4,1246.886447
51:50.4,1247.619048
51:50.4,1249.084249
51:50.4,1249.084249
51:50.4,1246.886447
51:50.4,1242.490842
51:50.4,1237.362637
51:50.4,1231.501832
51:50.4,1225.641026
51:50.4,1224.175824
51:50.4,1224.175824
51:50.4,1222.710623
51:50.5,1224.175824
51:50.5,1227.106227
51:50.5,1232.967033
51:50.5,1241.758242
51:50.5,1256.410256
51:50.5,1278.388278
51:50.5,1305.494505
51:50.5,1340.659341
51:50.5,1383.882784
51:50.5,1433.699634
51:50.5,1490.10989
51:50.5,1549.450549
51:50.5,1610.989011
51:50.6,1670.32967
51:50.6,1727.472527
51:50.6,1780.21978
51:50.6,1826.373626
51:50.6,1863.736264
51:50.6,1894.505495
51:50.6,1917.216117
51:50.6,1931.868132
51:50.6,1939.92674
51:50.6,1942.124542
51:50.6,1937.728938
51:50.6,1931.868132
51:50.6,1923.076923
51:50.7,1907.692308
51:50.7,1889.377289
51:50.7,1868.864469
51:50.7,1846.153846
51:50.7,1823.443223
51:50.7,1799.267399
51:50.7,1773.626374
51:50.7,1750.18315
51:50.7,1728.205128
51:50.7,1710.622711
51:50.7,1695.970696
51:50.7,1684.981685
51:50.8,1678.388278
51:50.8,1674.725275
51:50.8,1675.457875
51:50.8,1678.388278
51:50.8,1682.783883
51:50.8,1687.912088
51:50.8,1693.040293
51:50.8,1693.772894
51:50.8,1690.842491
51:50.8,1687.179487
51:50.8,1679.120879
51:50.8,1671.062271
51:50.8,1659.340659
51:50.9,1644.688645
51:50.9,1627.838828
51:50.9,1611.721612
51:50.9,1593.406593
51:50.9,1575.091575
51:50.9,1556.043956
51:50.9,1536.263736
51:50.9,1513.553114
51:50.9,1493.040293
51:50.9,1471.062271
51:50.9,1449.81685
51:50.9,1429.304029
51:50.9,1411.721612
51:51.0,1395.604396
51:51.0,1378.754579
51:51.0,1363.369963
51:51.0,1352.380952
51:51.0,1342.124542
51:51.0,1333.333333
51:51.0,1326.739927
51:51.0,1321.611722
51:51.0,1320.879121
51:51.0,1320.14652
51:51.0,1314.285714
51:51.0,1307.692308
51:51.0,1302.564103
51:51.1,1295.238095
51:51.1,1289.377289
51:51.1,1285.714286
51:51.1,1279.85348
51:51.1,1275.457875
51:51.1,1271.794872
51:51.1,1269.59707
51:51.1,1266.666667
51:51.1,1265.934066
51:51.1,1265.201465
51:51.1,1265.201465
51:51.1,1263.003663
51:51.1,1260.805861
51:51.2,1257.875458
51:51.2,1254.945055
51:51.2,1252.747253
51:51.2,1251.282051
51:51.2,1249.81685
51:51.2,1251.282051
51:51.2,1252.014652
51:51.2,1254.212454
51:51.2,1256.410256
51:51.2,1256.410256
51:51.2,1256.410256
51:51.2,1254.212454
51:51.3,1252.014652
51:51.3,1246.153846
51:51.3,1243.223443
51:51.3,1239.56044
51:51.3,1237.362637
51:51.3,1234.432234
51:51.3,1232.234432
51:51.3,1230.769231
51:51.3,1232.967033
51:51.3,1234.432234
51:51.3,1236.630037
51:51.3,1238.095238
51:51.3,1240.29304
51:51.4,1242.490842
51:51.4,1244.688645
51:51.4,1246.886447
51:51.4,1249.81685
51:51.4,1253.479853
51:51.4,1257.875458
51:51.4,1261.538462
51:51.4,1265.934066
51:51.4,1269.59707
51:51.4,1271.062271
51:51.4,1271.794872
51:51.4,1270.32967
51:51.4,1268.864469
51:51.5,1265.201465
51:51.5,1263.736264
51:51.5,1262.271062
51:51.5,1258.608059
51:51.5,1253.479853
51:51.5,1248.351648
51:51.5,1240.29304
51:51.5,1234.432234
51:51.5,1232.234432
51:51.5,1234.432234
51:51.5,1238.095238
51:51.5,1245.421245
51:51.5,1254.945055
51:51.6,1272.527473
51:51.6,1295.238095
51:51.6,1328.205128
51:51.6,1370.695971
51:51.6,1421.978022
51:51.6,1482.051282
51:51.6,1549.450549
51:51.6,1617.582418
51:51.6,1685.714286
51:51.6,1749.450549
51:51.6,1807.326007
51:51.6,1859.340659
51:51.6,1902.564103
51:51.7,1934.798535
51:51.7,1957.509158
51:51.7,1972.161172
51:51.7,1976.556777
51:51.7,1977.289377
51:51.7,1972.161172
51:51.7,1959.70696
51:51.7,1944.322344
51:51.7,1922.344322
51:51.7,1895.970696
51:51.7,1868.131868
51:51.7,1837.362637
51:51.8,1803.663004
51:51.8,1769.96337
51:51.8,1736.996337
51:51.8,1709.157509
51:51.8,1684.249084
51:51.8,1665.934066
51:51.8,1654.945055
51:51.8,1648.351648
51:51.8,1646.153846
51:51.8,1648.351648
51:51.8,1651.282051
51:51.8,1656.410256
51:51.8,1662.271062
51:51.9,1668.864469
51:51.9,1673.260073
51:51.9,1676.190476
51:51.9,1676.190476
51:51.9,1672.527473
51:51.9,1667.399267
51:51.9,1659.340659
51:51.9,1648.351648
51:51.9,1632.967033
51:51.9,1613.186813
51:51.9,1592.673993
51:51.9,1572.893773
51:51.9,1549.450549
51:52.0,1526.739927
51:52.0,1505.494505
51:52.0,1485.714286
51:52.0,1467.399267
51:52.0,1449.084249
51:52.0,1430.769231
51:52.0,1413.919414
51:52.0,1400
51:52.0,1387.545788
51:52.0,1374.358974
51:52.0,1359.70696
51:52.0,1347.252747
51:52.0,1334.798535
51:52.1,1323.809524
51:52.1,1312.087912
51:52.1,1304.029304
51:52.1,1295.970696
51:52.1,1287.179487
51:52.1,1279.85348
51:52.1,1273.992674
51:52.1,1271.062271
51:52.1,1267.399267
51:52.1,1264.468864
51:52.1,1265.201465
51:52.1,1268.864469
51:52.1,1275.457875
51:52.2,1282.051282
51:52.2,1287.912088
51:52.2,1291.575092
51:52.2,1290.842491
51:52.2,1282.783883
51:52.2,1274.725275
51:52.2,1264.468864
51:52.2,1254.212454
51:52.2,1245.421245
51:52.2,1241.025641
51:52.2,1237.362637
51:52.2,1233.699634
51:52.3,1232.234432
51:52.3,1231.501832
51:52.3,1231.501832
51:52.3,1231.501832
51:52.3,1231.501832
51:52.3,1231.501832
51:52.3,1227.106227
51:52.3,1221.978022
51:52.3,1219.78022
51:52.3,1219.78022
51:52.3,1222.710623
51:52.3,1227.106227
51:52.3,1235.164835
51:52.4,1241.758242
51:52.4,1249.084249
51:52.4,1256.410256
51:52.4,1263.736264
51:52.4,1268.131868
51:52.4,1271.062271
51:52.4,1271.794872
51:52.4,1271.062271
51:52.4,1270.32967
51:52.4,1266.666667
51:52.4,1261.538462
51:52.4,1254.212454
51:52.4,1247.619048
51:52.5,1243.223443
51:52.5,1242.490842
51:52.5,1241.758242
51:52.5,1241.758242
51:52.5,1241.025641
51:52.5,1241.025641
51:52.5,1241.025641
51:52.5,1241.758242
51:52.5,1241.758242
51:52.5,1241.025641
51:52.5,1238.095238
51:52.5,1234.432234
51:52.5,1227.838828
51:52.6,1219.047619
51:52.6,1212.454212
51:52.6,1211.721612
51:52.6,1213.919414
51:52.6,1221.978022
51:52.6,1234.432234
51:52.6,1252.014652
51:52.6,1272.527473
51:52.6,1300.3663
51:52.6,1336.996337
51:52.6,1380.21978
51:52.6,1429.304029
51:52.6,1484.249084
51:52.7,1542.857143
51:52.7,1602.197802
51:52.7,1659.340659
51:52.7,1709.89011
51:52.7,1750.18315
51:52.7,1781.684982
51:52.7,1805.860806
51:52.7,1821.245421
51:52.7,1830.769231
51:52.7,1835.164835
51:52.7,1833.699634
51:52.7,1828.571429
51:52.8,1819.047619
51:52.8,1805.128205
51:52.8,1783.882784
51:52.8,1759.70696
51:52.8,1732.600733
51:52.8,1704.761905
51:52.8,1676.190476
51:52.8,1648.351648
51:52.8,1621.245421
51:52.8,1596.336996
51:52.8,1575.091575
51:52.8,1557.509158
51:52.8,1546.520147
51:52.9,1539.92674
51:52.9,1536.996337
51:52.9,1537.728938
51:52.9,1540.659341
51:52.9,1546.520147
51:52.9,1556.776557
51:52.9,1565.567766
51:52.9,1573.626374
51:52.9,1580.952381
51:52.9,1584.615385
51:52.9,1584.615385
51:52.9,1579.487179
51:52.9,1574.358974
51:53.0,1567.765568
51:53.0,1558.974359
51:53.0,1547.252747
51:53.0,1537.728938
51:53.0,1526.739927
51:53.0,1513.553114
51:53.0,1495.970696
51:53.0,1477.655678
51:53.0,1459.340659
51:53.0,1440.29304
51:53.0,1421.245421
51:53.0,1400
51:53.0,1378.754579
51:53.1,1358.974359
51:53.1,1339.92674
51:53.1,1320.14652
51:53.1,1304.029304
51:53.1,1291.575092
51:53.1,1281.318681
51:53.1,1279.120879
51:53.1,1278.388278
51:53.1,1280.586081
51:53.1,1282.783883
51:53.1,1287.179487
51:53.1,1289.377289
51:53.1,1292.307692
51:53.2,1293.772894
51:53.2,1294.505495
51:53.2,1293.040293
51:53.2,1289.377289
51:53.2,1284.981685
51:53.2,1279.120879
51:53.2,1275.457875
51:53.2,1270.32967
51:53.2,1266.666667
51:53.2,1264.468864
51:53.2,1262.271062
51:53.2,1263.003663
51:53.3,1262.271062
51:53.3,1260.07326
51:53.3,1257.875458
51:53.3,1255.677656
51:53.3,1253.479853
51:53.3,1251.282051
51:53.3,1249.81685
51:53.3,1247.619048
51:53.3,1243.223443
51:53.3,1234.432234
51:53.3,1226.373626
51:53.3,1216.849817
51:53.3,1209.52381
51:53.4,1201.465201
51:53.4,1197.069597
51:53.4,1193.406593
51:53.4,1191.941392
51:53.4,1191.208791
51:53.4,1193.406593
51:53.4,1195.604396
51:53.4,1199.267399
51:53.4,1203.663004
51:53.4,1211.721612
51:53.4,1221.978022
51:53.4,1231.501832
51:53.4,1238.095238
51:53.5,1243.956044
51:53.5,1247.619048
51:53.5,1249.81685
51:53.5,1251.282051
51:53.5,1250.549451
51:53.5,1246.153846
51:53.5,1239.56044
51:53.5,1229.304029
51:53.5,1217.582418
51:53.5,1208.791209
51:53.5,1202.930403
51:53.5,1198.534799
51:53.5,1195.604396
51:53.6,1195.604396
51:53.6,1202.197802
51:53.6,1209.52381
51:53.6,1218.315018
51:53.6,1230.769231
51:53.6,1250.549451
51:53.6,1281.318681
51:53.6,1319.413919
51:53.6,1365.567766
51:53.6,1419.78022
51:53.6,1479.85348
51:53.6,1543.589744
51:53.6,1608.791209
51:53.7,1672.527473
51:53.7,1731.135531
51:53.7,1783.882784
51:53.7,1830.03663
51:53.7,1867.399267
51:53.7,1892.307692
51:53.7,1907.692308
51:53.7,1916.483516
51:53.7,1917.216117
51:53.7,1913.553114
51:53.7,1902.564103
51:53.7,1888.644689
51:53.8,1874.725275
51:53.8,1855.677656
51:53.8,1835.164835
51:53.8,1808.791209
51:53.8,1778.754579
51:53.8,1747.985348
51:53.8,1717.216117
51:53.8,1687.912088
51:53.8,1663.003663
51:53.8,1641.758242
51:53.8,1625.641026
51:53.8,1611.721612
51:53.8,1602.930403
51:53.9,1600
51:53.9,1599.267399
51:53.9,1601.465201
51:53.9,1605.128205
51:53.9,1610.989011
51:53.9,1616.849817
51:53.9,1622.710623
51:53.9,1628.571429
51:53.9,1629.304029
51:53.9,1627.838828
51:53.9,1623.443223
51:53.9,1614.652015
51:53.9,1600.732601
51:54.0,1584.615385
51:54.0,1564.835165
51:54.0,1545.787546
51:54.0,1526.007326
51:54.0,1506.227106
51:54.0,1487.179487
51:54.0,1466.666667
51:54.0,1449.084249
51:54.0,1432.967033
51:54.0,1416.117216
51:54.0,1401.465201
51:54.0,1387.545788
51:54.0,1372.893773
51:54.1,1358.241758
51:54.1,1344.322344
51:54.1,1331.135531
51:54.1,1321.611722
51:54.1,1313.553114
51:54.1,1306.227106
51:54.1,1300.3663
51:54.1,1295.970696
51:54.1,1291.575092
51:54.1,1290.10989
51:54.1,1286.446886
51:54.1,1282.783883
51:54.1,1277.655678
51:54.2,1273.992674
51:54.2,1268.131868
51:54.2,1259.340659
51:54.2,1251.282051
51:54.2,1243.223443
51:54.2,1238.827839
51:54.2,1237.362637
51:54.2,1236.630037
51:54.2,1238.095238
51:54.2,1240.29304
51:54.2,1243.956044
51:54.2,1245.421245
51:54.3,1245.421245
51:54.3,1244.688645
51:54.3,1243.223443
51:54.3,1239.56044
51:54.3,1238.095238
51:54.3,1235.164835
51:54.3,1234.432234
51:54.3,1235.164835
51:54.3,1235.897436
51:54.3,1238.095238
51:54.3,1235.897436
51:54.3,1234.432234
51:54.3,1231.501832
51:54.4,1227.838828
51:54.4,1224.175824
51:54.4,1221.245421
51:54.4,1218.315018
51:54.4,1216.117216
51:54.4,1213.186813
51:54.4,1210.989011
51:54.4,1208.058608
51:54.4,1205.128205
51:54.4,1202.930403
51:54.4,1200.732601
51:54.4,1200
51:54.4,1200.732601
51:54.5,1203.663004
51:54.5,1204.395604
51:54.5,1205.128205
51:54.5,1207.326007
51:54.5,1209.52381
51:54.5,1210.989011
51:54.5,1215.384615
51:54.5,1220.512821
51:54.5,1227.106227
51:54.5,1233.699634
51:54.5,1238.827839
51:54.5,1241.025641
51:54.5,1241.025641
51:54.6,1243.223443
51:54.6,1242.490842
51:54.6,1239.56044
51:54.6,1236.630037
51:54.6,1235.897436
51:54.6,1242.490842
51:54.6,1255.677656
51:54.6,1279.120879
51:54.6,1311.355311
51:54.6,1357.509158
51:54.6,1415.384615
51:54.6,1479.85348
51:54.6,1551.648352
51:54.7,1625.641026
51:54.7,1697.435897
51:54.7,1764.102564
51:54.7,1821.978022
51:54.7,1871.794872
51:54.7,1913.553114
51:54.7,1945.787546
51:54.7,1965.567766
51:54.7,1975.091575
51:54.7,1973.626374
51:54.7,1965.567766
51:54.7,1953.113553
51:54.8,1937.728938
51:54.8,1916.483516
51:54.8,1894.505495
51:54.8,1869.59707
51:54.8,1846.153846
51:54.8,1822.710623
51:54.8,1798.534799
51:54.8,1772.893773
51:54.8,1746.520147
51:54.8,1720.879121
51:54.8,1694.505495
51:54.8,1671.794872
51:54.8,1652.747253
51:54.9,1636.630037
51:54.9,1622.710623
51:54.9,1614.652015
51:54.9,1610.25641
51:54.9,1605.860806
51:54.9,1605.860806
51:54.9,1605.128205
51:54.9,1603.663004
51:54.9,1599.267399
51:54.9,1594.139194
51:54.9,1586.813187
51:54.9,1575.091575
51:54.9,1561.172161
51:55.0,1546.520147
51:55.0,1531.135531
51:55.0,1515.018315
51:55.0,1498.901099
51:55.0,1481.318681
51:55.0,1464.468864
51:55.0,1450.549451
51:55.0,1435.164835
51:55.0,1421.978022
51:55.0,1410.25641
51:55.0,1397.802198
51:55.0,1383.882784
51:55.0,1369.230769
51:55.1,1356.043956
51:55.1,1342.857143
51:55.1,1328.937729
51:55.1,1315.750916
51:55.1,1303.296703
51:55.1,1293.772894
51:55.1,1286.446886
51:55.1,1280.586081
51:55.1,1275.457875
51:55.1,1271.794872
51:55.1,1268.864469
51:55.1,1267.399267
51:55.1,1265.934066
51:55.2,1264.468864
51:55.2,1260.805861
51:55.2,1257.142857
51:55.2,1253.479853
51:55.2,1251.282051
51:55.2,1249.81685
51:55.2,1248.351648
51:55.2,1251.282051
51:55.2,1257.142857
51:55.2,1263.003663
51:55.2,1268.864469
51:55.2,1273.992674
51:55.3,1275.457875
51:55.3,1273.260073
51:55.3,1268.864469
51:55.3,1263.003663
51:55.3,1258.608059
51:55.3,1252.747253
51:55.3,1246.886447
51:55.3,1241.025641
51:55.3,1232.967033
51:55.3,1224.908425
51:55.3,1219.78022
51:55.3,1217.582418
51:55.3,1215.384615
51:55.4,1212.454212
51:55.4,1211.721612
51:55.4,1213.919414
51:55.4,1219.047619
51:55.4,1227.106227
51:55.4,1236.630037
51:55.4,1243.956044
51:55.4,1249.084249
51:55.4,1251.282051
51:55.4,1249.81685
51:55.4,1246.153846
51:55.4,1243.956044
51:55.4,1239.56044
51:55.5,1232.234432
51:55.5,1223.443223
51:55.5,1215.384615
51:55.5,1207.326007
51:55.5,1200
51:55.5,1196.336996
51:55.5,1194.871795
51:55.5,1194.139194
51:55.5,1194.139194
51:55.5,1194.139194
51:55.5,1195.604396
51:55.5,1197.802198
51:55.5,1202.197802
51:55.6,1208.058608
51:55.6,1210.989011
51:55.6,1213.186813
51:55.6,1217.582418
51:55.6,1221.245421
51:55.6,1228.571429
51:55.6,1241.025641
51:55.6,1263.736264
51:55.6,1294.505495
51:55.6,1337.728938
51:55.6,1393.406593
51:55.6,1454.212454
51:55.6,1517.216117
51:55.7,1583.150183
51:55.7,1645.421245
51:55.7,1704.029304
51:55.7,1753.113553
51:55.7,1797.069597
51:55.7,1830.03663
51:55.7,1854.212454
51:55.7,1871.062271
51:55.7,1879.120879
51:55.7,1879.85348
51:55.7,1874.725275
51:55.7,1864.468864
51:55.8,1848.351648
51:55.8,1828.571429
51:55.8,1805.128205
51:55.8,1780.952381
51:55.8,1756.043956
51:55.8,1726.007326
51:55.8,1693.040293
51:55.8,1660.07326
51:55.8,1630.03663
51:55.8,1602.197802
51:55.8,1578.021978
51:55.8,1558.974359
51:55.8,1545.787546
51:55.9,1536.996337
51:55.9,1534.798535
51:55.9,1537.728938
51:55.9,1544.322344
51:55.9,1550.915751
51:55.9,1557.509158
51:55.9,1564.835165
51:55.9,1572.161172
51:55.9,1577.289377
51:55.9,1583.882784
51:55.9,1588.278388
51:55.9,1589.74359
51:55.9,1588.278388
51:56.0,1583.150183
51:56.0,1576.556777
51:56.0,1566.300366
51:56.0,1555.311355
51:56.0,1539.92674
51:56.0,1520.879121
51:56.0,1499.6337
51:56.0,1476.190476
51:56.0,1451.282051
51:56.0,1426.373626
51:56.0,1405.128205
51:56.0,1385.347985
51:56.0,1363.369963
51:56.1,1339.194139
51:56.1,1315.018315
51:56.1,1292.307692
51:56.1,1273.992674
51:56.1,1260.805861
51:56.1,1251.282051
51:56.1,1243.956044
51:56.1,1236.630037
51:56.1,1230.03663
51:56.1,1224.908425
51:56.1,1219.78022
51:56.1,1216.117216
51:56.1,1216.117216
51:56.2,1217.582418
51:56.2,1220.512821
51:56.2,1224.908425
51:56.2,1230.769231
51:56.2,1237.362637
51:56.2,1243.956044
51:56.2,1252.747253
51:56.2,1260.805861
51:56.2,1271.062271
51:56.2,1279.85348
51:56.2,1285.714286
51:56.2,1289.377289
51:56.3,1292.307692
51:56.3,1293.772894
51:56.3,1290.842491
51:56.3,1284.981685
51:56.3,1277.655678
51:56.3,1268.864469
51:56.3,1260.07326
51:56.3,1256.410256
51:56.3,1252.747253
51:56.3,1249.084249
51:56.3,1244.688645
51:56.3,1238.827839
51:56.3,1232.967033
51:56.4,1225.641026
51:56.4,1219.047619
51:56.4,1210.989011
51:56.4,1202.197802
51:56.4,1194.871795
51:56.4,1188.278388
51:56.4,1180.21978
51:56.4,1176.556777
51:56.4,1178.754579
51:56.4,1183.882784
51:56.4,1191.208791
51:56.4,1202.197802
51:56.4,1211.721612
51:56.5,1216.117216
51:56.5,1218.315018
51:56.5,1217.582418
51:56.5,1216.117216
51:56.5,1214.652015
51:56.5,1213.919414
51:56.5,1213.919414
51:56.5,1213.919414
51:56.5,1211.721612
51:56.5,1208.791209
51:56.5,1204.395604
51:56.5,1202.197802
51:56.5,1200.732601
51:56.6,1204.395604
51:56.6,1213.919414
51:56.6,1232.967033
51:56.6,1263.736264
51:56.6,1306.227106
51:56.6,1363.369963
51:56.6,1430.769231
51:56.6,1508.424908
51:56.6,1590.47619
51:56.6,1673.992674
51:56.6,1752.380952
51:56.6,1825.641026
51:56.6,1887.912088
51:56.7,1938.461538
51:56.7,1975.091575
51:56.7,2000.732601
51:56.7,2016.117216
51:56.7,2021.245421
51:56.7,2016.849817
51:56.7,2006.593407
51:56.7,1991.208791
51:56.7,1970.695971
51:56.7,1948.717949
51:56.7,1926.007326
51:56.7,1901.098901
51:56.8,1875.457875
51:56.8,1849.084249
51:56.8,1820.512821
51:56.8,1789.010989
51:56.8,1756.776557
51:56.8,1726.007326
51:56.8,1699.6337
51:56.8,1678.388278
51:56.8,1662.271062
51:56.8,1653.479853
51:56.8,1649.084249
51:56.8,1647.619048
51:56.8,1651.282051
51:56.9,1655.677656
51:56.9,1660.805861
51:56.9,1661.538462
51:56.9,1662.271062
51:56.9,1660.805861
51:56.9,1654.945055
51:56.9,1648.351648
51:56.9,1642.490842
51:56.9,1633.699634
51:56.9,1624.175824
51:56.9,1611.721612
51:56.9,1597.069597
51:56.9,1579.487179
51:57.0,1557.509158
51:57.0,1532.600733
51:57.0,1508.424908
51:57.0,1482.051282
51:57.0,1454.945055
51:57.0,1429.304029
51:57.0,1405.860806
51:57.0,1386.080586
51:57.0,1369.230769
51:57.0,1355.311355
51:57.0,1344.322344
51:57.0,1334.065934
51:57.0,1325.274725
51:57.1,1319.413919
51:57.1,1313.553114
51:57.1,1307.692308
51:57.1,1301.831502
51:57.1,1295.970696
51:57.1,1293.040293
51:57.1,1294.505495
51:57.1,1295.970696
51:57.1,1295.238095
51:57.1,1292.307692
51:57.1,1287.179487
51:57.1,1284.249084
51:57.1,1282.051282
51:57.2,1280.586081
51:57.2,1279.85348
51:57.2,1277.655678
51:57.2,1273.992674
51:57.2,1268.864469
51:57.2,1264.468864
51:57.2,1262.271062
51:57.2,1260.805861
51:57.2,1259.340659
51:57.2,1257.875458
51:57.2,1258.608059
51:57.2,1260.805861
51:57.3,1265.201465
51:57.3,1270.32967
51:57.3,1273.992674
51:57.3,1274.725275
51:57.3,1272.527473
51:57.3,1270.32967
51:57.3,1266.666667
51:57.3,1263.003663
51:57.3,1258.608059
51:57.3,1254.212454
51:57.3,1249.81685
51:57.3,1244.688645
51:57.3,1238.827839
51:57.4,1232.967033
51:57.4,1225.641026
51:57.4,1219.047619
51:57.4,1213.919414
51:57.4,1209.52381
51:57.4,1205.128205
51:57.4,1201.465201
51:57.4,1199.267399
51:57.4,1198.534799
51:57.4,1197.802198
51:57.4,1197.069597
51:57.4,1200
51:57.4,1202.197802
51:57.5,1204.395604
51:57.5,1202.930403
51:57.5,1201.465201
51:57.5,1199.267399
51:57.5,1197.802198
51:57.5,1198.534799
51:57.5,1199.267399
51:57.5,1200.732601
51:57.5,1200
51:57.5,1198.534799
51:57.5,1197.069597
51:57.5,1197.802198
51:57.5,1200.732601
51:57.6,1204.395604
51:57.6,1210.989011
51:57.6,1223.443223
51:57.6,1241.758242
51:57.6,1268.864469
51:57.6,1305.494505
51:57.6,1353.846154
51:57.6,1415.384615
51:57.6,1487.179487
51:57.6,1569.230769
51:57.6,1654.945055
51:57.6,1740.659341
51:57.7,1820.512821
51:57.7,1895.238095
51:57.7,1959.70696
51:57.7,2014.652015
51:57.7,2057.142857
51:57.7,2087.912088
51:57.7,2106.959707
51:57.7,2117.216117
51:57.7,2117.948718
51:57.7,2112.087912
51:57.7,2097.435897
51:57.7,2078.388278
51:57.7,2055.677656
51:57.8,2032.234432
51:57.8,2004.395604
51:57.8,1972.161172
51:57.8,1934.798535
51:57.8,1896.703297
51:57.8,1858.608059
51:57.8,1822.710623
51:57.8,1786.080586
51:57.8,1751.648352
51:57.8,1720.14652
51:57.8,1696.703297
51:57.8,1679.120879
51:57.8,1668.131868
51:57.9,1660.805861
51:57.9,1660.07326
51:57.9,1663.736264
51:57.9,1671.794872
51:57.9,1679.120879
51:57.9,1685.714286
51:57.9,1691.575092
51:57.9,1693.772894
51:57.9,1689.377289
51:57.9,1682.051282
51:57.9,1671.794872
51:57.9,1659.340659
51:57.9,1646.886447
51:58.0,1637.362637
51:58.0,1624.908425
51:58.0,1611.721612
51:58.0,1594.139194
51:58.0,1574.358974
51:58.0,1555.311355
51:58.0,1536.263736
51:58.0,1514.285714
51:58.0,1490.10989
51:58.0,1464.468864
51:58.0,1438.827839
51:58.0,1412.454212
51:58.0,1389.74359
51:58.1,1368.498168
51:58.1,1351.648352
51:58.1,1338.461538
51:58.1,1327.472527
51:58.1,1319.413919
51:58.1,1312.820513
51:58.1,1304.761905
51:58.1,1297.435897
51:58.1,1289.377289
51:58.1,1285.714286
51:58.1,1282.783883
51:58.1,1280.586081
51:58.1,1278.388278
51:58.2,1276.190476
51:58.2,1274.725275
51:58.2,1271.794872
51:58.2,1268.864469
51:58.2,1265.934066
51:58.2,1263.003663
51:58.2,1260.07326
51:58.2,1256.410256
51:58.2,1253.479853
51:58.2,1250.549451
51:58.2,1249.084249
51:58.2,1249.084249
51:58.3,1250.549451
51:58.3,1251.282051
51:58.3,1251.282051
51:58.3,1249.084249
51:58.3,1246.886447
51:58.3,1244.688645
51:58.3,1240.29304
51:58.3,1234.432234
51:58.3,1229.304029
51:58.3,1223.443223
51:58.3,1216.849817
51:58.3,1209.52381
51:58.3,1202.930403
51:58.4,1195.604396
51:58.4,1189.010989
51:58.4,1180.21978
51:58.4,1175.091575
51:58.4,1169.96337
51:58.4,1166.300366
51:58.4,1161.904762
51:58.4,1157.509158
51:58.4,1154.578755
51:58.4,1154.578755
51:58.4,1155.311355
51:58.4,1158.241758
51:58.4,1160.43956
51:58.5,1164.835165
51:58.5,1168.498168
51:58.5,1172.893773
51:58.5,1177.289377
51:58.5,1182.417582
51:58.5,1186.813187
51:58.5,1190.47619
51:58.5,1194.139194
51:58.5,1199.267399
51:58.5,1202.930403
51:58.5,1206.593407
51:58.5,1207.326007
51:58.5,1206.593407
51:58.6,1205.128205
51:58.6,1204.395604
51:58.6,1202.930403
51:58.6,1200.732601
51:58.6,1201.465201
51:58.6,1208.058608
51:58.6,1223.443223
51:58.6,1249.81685
51:58.6,1284.981685
51:58.6,1334.798535
51:58.6,1394.871795
51:58.6,1464.468864
51:58.6,1540.659341
51:58.7,1621.978022
51:58.7,1702.564103
51:58.7,1778.021978
51:58.7,1849.084249
51:58.7,1912.087912
51:58.7,1962.637363
51:58.7,2000.732601
51:58.7,2027.838828
51:58.7,2039.56044
51:58.7,2037.362637
51:58.7,2027.838828
51:58.7,2012.454212
51:58.8,1994.871795
51:58.8,1973.626374
51:58.8,1954.578755
51:58.8,1934.065934
51:58.8,1909.89011
51:58.8,1882.051282
51:58.8,1853.479853
51:58.8,1821.978022
51:58.8,1789.010989
51:58.8,1755.311355
51:58.8,1722.344322
51:58.8,1693.040293
51:58.8,1668.864469
51:58.9,1647.619048
51:58.9,1634.432234
51:58.9,1626.373626
51:58.9,1624.908425
51:58.9,1627.838828
51:58.9,1632.967033
51:58.9,1640.29304
51:58.9,1646.886447
51:58.9,1652.014652
51:58.9,1657.142857
51:58.9,1663.003663
51:58.9,1669.59707
51:58.9,1673.260073
51:59.0,1671.794872
51:59.0,1661.538462
51:59.0,1649.084249
51:59.0,1633.699634
51:59.0,1613.186813
51:59.0,1589.74359
51:59.0,1564.835165
51:59.0,1538.461538
51:59.0,1512.087912
51:59.0,1487.912088
51:59.0,1462.271062
51:59.0,1436.630037
51:59.0,1410.989011
51:59.1,1386.080586
51:59.1,1364.102564
51:59.1,1342.857143
51:59.1,1326.007326
51:59.1,1314.285714
51:59.1,1305.494505
51:59.1,1298.168498
51:59.1,1291.575092
51:59.1,1284.249084
51:59.1,1279.120879
51:59.1,1272.527473
51:59.1,1265.201465
51:59.1,1259.340659
51:59.2,1256.410256
51:59.2,1258.608059
51:59.2,1262.271062
51:59.2,1268.864469
51:59.2,1272.527473
51:59.2,1276.190476
51:59.2,1276.923077
51:59.2,1279.120879
51:59.2,1282.051282
51:59.2,1283.516484
51:59.2,1284.249084
51:59.2,1284.249084
51:59.3,1284.249084
51:59.3,1283.516484
51:59.3,1281.318681
51:59.3,1274.725275
51:59.3,1265.201465
51:59.3,1252.747253
51:59.3,1238.827839
51:59.3,1226.373626
51:59.3,1216.117216
51:59.3,1207.326007
51:59.3,1201.465201
51:59.3,1200.732601
51:59.3,1206.593407
51:59.4,1215.384615
51:59.4,1223.443223
51:59.4,1231.501832
51:59.4,1238.827839
51:59.4,1243.223443
51:59.4,1245.421245
51:59.4,1245.421245
51:59.4,1242.490842
51:59.4,1236.630037
51:59.4,1230.03663
51:59.4,1223.443223
51:59.4,1215.384615
51:59.4,1204.395604
51:59.5,1193.406593
51:59.5,1183.882784
51:59.5,1178.754579
51:59.5,1178.021978
51:59.5,1179.487179
51:59.5,1180.952381
51:59.5,1182.417582
51:59.5,1182.417582
51:59.5,1179.487179
51:59.5,1176.556777
51:59.5,1172.893773
51:59.5,1168.498168
51:59.5,1165.567766
51:59.6,1163.369963
51:59.6,1167.765568
51:59.6,1176.556777
51:59.6,1192.673993
51:59.6,1216.849817
51:59.6,1252.747253
51:59.6,1300.3663
51:59.6,1359.70696
51:59.6,1430.03663
51:59.6,1510.622711
51:59.6,1597.069597
51:59.6,1684.249084
51:59.6,1767.032967
51:59.7,1843.956044
51:59.7,1911.355311
51:59.7,1967.032967
51:59.7,2010.989011
51:59.7,2042.490842
51:59.7,2061.538462
51:59.7,2068.864469
51:59.7,2063.736264
51:59.7,2051.282051
51:59.7,2032.967033
51:59.7,2010.989011
51:59.7,1987.545788
51:59.8,1962.637363
51:59.8,1934.065934
51:59.8,1903.296703
51:59.8,1868.864469
51:59.8,1832.967033
51:59.8,1795.604396
51:59.8,1760.43956
51:59.8,1727.472527
51:59.8,1697.435897
51:59.8,1672.527473
51:59.8,1654.212454
51:59.8,1640.29304
51:59.8,1630.769231
51:59.9,1624.908425
51:59.9,1624.175824
51:59.9,1628.571429
51:59.9,1638.827839
51:59.9,1647.619048
51:59.9,1654.212454
51:59.9,1657.875458
51:59.9,1658.608059
51:59.9,1657.875458
51:59.9,1653.479853
51:59.9,1645.421245
51:59.9,1636.630037
51:59.9,1623.443223
52:00.0,1605.860806
52:00.0,1586.080586
52:00.0,1563.369963
52:00.0,1539.92674
52:00.0,1516.483516
52:00.0,1493.772894
52:00.0,1471.794872
52:00.0,1451.282051
52:00.0,1429.304029
52:00.0,1408.791209
52:00.0,1390.47619
52:00.0,1374.358974
52:00.0,1359.70696
52:00.1,1345.054945
52:00.1,1334.065934
52:00.1,1323.076923
52:00.1,1314.285714
52:00.1,1305.494505
52:00.1,1297.435897
52:00.1,1292.307692
52:00.1,1287.912088
52:00.1,1284.981685
52:00.1,1282.051282
52:00.1,1279.120879
52:00.1,1276.190476
52:00.1,1271.794872
52:00.2,1267.399267
52:00.2,1263.003663
52:00.2,1259.340659
52:00.2,1256.410256
52:00.2,1254.212454
52:00.2,1251.282051
52:00.2,1248.351648
52:00.2,1246.153846
52:00.2,1245.421245
52:00.2,1244.688645
52:00.2,1247.619048
52:00.2,1249.81685
52:00.3,1254.212454
52:00.3,1260.07326
52:00.3,1266.666667
52:00.3,1268.131868
52:00.3,1268.864469
52:00.3,1268.131868
52:00.3,1266.666667
52:00.3,1263.736264
52:00.3,1260.07326
52:00.3,1253.479853
52:00.3,1247.619048
52:00.3,1240.29304
52:00.3,1232.967033
52:00.4,1227.106227
52:00.4,1221.245421
52:00.4,1216.849817
52:00.4,1213.919414
52:00.4,1209.52381
52:00.4,1206.593407
52:00.4,1203.663004
52:00.4,1200.732601
52:00.4,1198.534799
52:00.4,1194.871795
52:00.4,1189.74359
52:00.4,1185.347985
52:00.4,1181.684982
52:00.5,1178.754579
52:00.5,1177.289377
52:00.5,1174.358974
52:00.5,1174.358974
52:00.5,1172.893773
52:00.5,1169.230769
52:00.5,1162.637363
52:00.5,1156.043956
52:00.5,1151.648352
52:00.5,1146.520147
52:00.5,1143.589744
52:00.5,1141.391941
52:00.5,1139.194139
52:00.6,1137.728938
52:00.6,1140.659341
52:00.6,1147.985348
52:00.6,1161.904762
52:00.6,1179.487179
52:00.6,1202.930403
52:00.6,1231.501832
52:00.6,1272.527473
52:00.6,1325.274725
52:00.6,1392.673993
52:00.6,1471.794872
52:00.6,1563.369963
52:00.6,1660.805861
52:00.7,1761.172161
52:00.7,1858.608059
52:00.7,1949.450549
52:00.7,2030.03663
52:00.7,2098.901099
52:00.7,2153.846154
52:00.7,2197.069597
52:00.7,2225.641026
52:00.7,2241.025641
52:00.7,2244.688645
52:00.7,2238.827839
52:00.7,2224.908425
52:00.8,2207.326007
52:00.8,2184.615385
52:00.8,2159.70696
52:00.8,2136.996337
52:00.8,2115.018315
52:00.8,2093.772894
52:00.8,2070.32967
52:00.8,2044.688645
52:00.8,2017.582418
52:00.8,1987.545788
52:00.8,1957.509158
52:00.8,1927.472527
52:00.8,1899.6337
52:00.9,1871.794872
52:00.9,1849.084249
52:00.9,1828.571429
52:00.9,1810.25641
52:00.9,1797.069597
52:00.9,1787.545788
52:00.9,1782.417582
52:00.9,1780.952381
52:00.9,1776.556777
52:00.9,1767.032967
52:00.9,1756.776557
52:00.9,1742.857143
52:00.9,1729.67033
52:01.0,1715.750916
52:01.0,1702.564103
52:01.0,1687.912088
52:01.0,1671.794872
52:01.0,1651.282051
52:01.0,1626.373626
52:01.0,1598.534799
52:01.0,1570.695971
52:01.0,1545.054945
52:01.0,1522.344322
52:01.0,1503.296703
52:01.0,1485.714286
52:01.0,1471.062271
52:01.1,1457.142857
52:01.1,1443.956044
52:01.1,1431.501832
52:01.1,1421.245421
52:01.1,1409.52381
52:01.1,1395.604396
52:01.1,1378.021978
52:01.1,1358.974359
52:01.1,1341.391941
52:01.1,1323.809524
52:01.1,1310.622711
52:01.1,1302.564103
52:01.1,1297.435897
52:01.2,1294.505495
52:01.2,1293.772894
52:01.2,1290.842491
52:01.2,1287.912088
52:01.2,1284.981685
52:01.2,1282.051282
52:01.2,1278.388278
52:01.2,1278.388278
52:01.2,1277.655678
52:01.2,1278.388278
52:01.2,1281.318681
52:01.2,1287.179487
52:01.3,1290.10989
52:01.3,1288.644689
52:01.3,1284.981685
52:01.3,1279.120879
52:01.3,1271.062271
52:01.3,1260.07326
52:01.3,1249.084249
52:01.3,1239.56044
52:01.3,1232.234432
52:01.3,1226.373626
52:01.3,1221.245421
52:01.3,1219.047619
52:01.3,1217.582418
52:01.4,1216.849817
52:01.4,1215.384615
52:01.4,1212.454212
52:01.4,1208.791209
52:01.4,1204.395604
52:01.4,1200.732601
52:01.4,1195.604396
52:01.4,1189.010989
52:01.4,1185.347985
52:01.4,1183.150183
52:01.4,1179.487179
52:01.4,1175.824176
52:01.4,1171.428571
52:01.5,1167.765568
52:01.5,1164.102564
52:01.5,1162.637363
52:01.5,1164.102564
52:01.5,1169.230769
52:01.5,1175.091575
52:01.5,1181.684982
52:01.5,1186.813187
52:01.5,1191.941392
52:01.5,1193.406593
52:01.5,1194.871795
52:01.5,1194.871795
52:01.5,1193.406593
52:01.6,1190.47619
52:01.6,1185.347985
52:01.6,1180.952381
52:01.6,1175.824176
52:01.6,1170.695971
52:01.6,1162.637363
52:01.6,1156.043956
52:01.6,1149.450549
52:01.6,1142.124542
52:01.6,1131.868132
52:01.6,1122.344322
52:01.6,1113.553114
52:01.6,1106.227106
52:01.7,1101.831502
52:01.7,1099.6337
52:01.7,1098.901099
52:01.7,1101.831502
52:01.7,1109.89011
52:01.7,1120.14652
52:01.7,1136.263736
52:01.7,1158.974359
52:01.7,1192.673993
52:01.7,1238.095238
52:01.7,1298.168498
52:01.7,1372.161172
52:01.8,1458.608059
52:01.8,1554.578755
52:01.8,1654.212454
52:01.8,1750.915751
52:01.8,1842.490842
52:01.8,1925.274725
52:01.8,1996.336996
52:01.8,2054.212454
52:01.8,2096.703297
52:01.8,2123.809524
52:01.8,2139.92674
52:01.8,2146.520147
52:01.8,2144.322344
52:01.9,2134.798535
52:01.9,2119.413919
52:01.9,2104.029304
52:01.9,2090.10989
52:01.9,2076.190476
52:01.9,2063.736264
52:01.9,2049.81685
52:01.9,2031.501832
52:01.9,2008.058608
52:01.9,1980.21978
52:01.9,1947.252747
52:01.9,1911.355311
52:01.9,1874.725275
52:02.0,1839.56044
52:02.0,1808.791209
52:02.0,1782.417582
52:02.0,1759.70696
52:02.0,1745.054945
52:02.0,1733.333333
52:02.0,1728.937729
52:02.0,1725.274725
52:02.0,1725.274725
52:02.0,1726.007326
52:02.0,1726.007326
52:02.0,1722.344322
52:02.0,1716.483516
52:02.1,1704.761905
52:02.1,1690.10989
52:02.1,1672.527473
52:02.1,1652.747253
52:02.1,1634.432234
52:02.1,1614.652015
52:02.1,1594.871795
52:02.1,1573.626374
52:02.1,1547.985348
52:02.1,1522.344322
52:02.1,1494.505495
52:02.1,1468.131868
52:02.1,1442.490842
52:02.2,1419.047619
52:02.2,1397.802198
52:02.2,1378.754579
52:02.2,1360.43956
52:02.2,1341.391941
52:02.2,1322.344322
52:02.2,1305.494505
52:02.2,1290.842491
52:02.2,1278.388278
52:02.2,1268.131868
52:02.2,1257.875458
52:02.2,1249.084249
52:02.3,1243.223443
52:02.3,1238.095238
52:02.3,1234.432234
52:02.3,1232.234432
52:02.3,1231.501832
52:02.3,1230.769231
52:02.3,1228.571429
52:02.3,1226.373626
52:02.3,1221.245421
52:02.3,1217.582418
52:02.3,1214.652015
52:02.3,1213.186813
52:02.3,1213.186813
52:02.4,1211.721612
52:02.4,1210.989011
52:02.4,1209.52381
52:02.4,1210.25641
52:02.4,1212.454212
52:02.4,1215.384615
52:02.4,1216.849817
52:02.4,1216.117216
52:02.4,1215.384615
52:02.4,1215.384615
